23
25
11
-21
-25
-41
-53
-55
-63
-69
-63
-75
-73
-63
-65
-67
-63
-67
-69
-57
-57
-55
-43
-47
-47
-41
-43
-19
-1
19
41
83
163
289
453
474
327
137
-39
-173
-247
-267
-217
-137
-75
-49
-37
-41
-47
-33
-37
-41
-41
-31
-33
-17
-31
-35
-25
-25
-27
-19
-15
-19
-23
-25
-21
-15
-19
-21
-9
-25
-23
-5
-7
-13
-7
-11
-7
-1
1
3
15
9
11
21
27
31
41
53
51
71
85
95
113
123
127
149
159
168
185
201
213
229
231
233
247
256
259
273
273
257
249
231
217
205
181
153
141
125
99
95
81
63
61
49
25
29
21
19
17
5
-1
-1
-3
-11
-1
-9
-7
-7
-15
-21
-1
-16
-19
-11
-9
-17
-13
-19
-25
-5
-11
-13
-7
-11
-23
-15
-13
-11
-9
-19
-21
-7
-9
-11
-3
-13
-17
-7
-13
-15
-7
-16
-27
-19
-16
-23
-19
-27
-27
-15
-21
-21
-13
-21
-27
-21
-27
-29
-21
-21
-31
-19
-15
-13
-11
-15
-15
-11
-13
-11
-3
-7
-19
-15
-11
-13
-1
-11
-15
-11
-11
-11
-7
-15
-25
-13
-13
-3
-9
-17
-23
-9
-11
-6
-3
-21
-15
1
-11
-13
-7
-15
-19
-9
-13
-11
-3
-17
-13
-5
-3
-16
-7
-9
-13
-7
-5
-5
1
-7
-19
3
17
19
27
31
29
51
47
65
87
105
105
121
123
117
107
77
55
53
39
21
7
-7
-15
-19
-23
-27
-27
-35
-37
-33
-35
-33
-27
-31
-33
-25
-29
-23
-11
-19
-15
-17
-15
31
49
65
119
185
305
490
597
492
285
77
-87
-189
-235
-181
-105
-57
-41
-23
-9
-21
-15
-29
-25
-19
-27
-35
-25
-27
-35
-23
-31
-39
-27
-29
-33
-23
-31
-31
-33
-33
-31
-27
-35
-31
-27
-27
-35
-25
-25
-27
-15
-13
-11
-3
1
3
13
11
11
31
39
43
59
73
77
91
107
125
137
141
157
183
197
203
229
229
239
257
267
256
271
255
253
251
235
213
207
181
155
141
135
103
95
71
59
39
37
23
23
11
-7
-3
-11
-15
-15
-17
-19
-13
-25
-29
-25
-27
-43
-29
-35
-37
-31
-33
-41
-33
-45
-47
-35
-39
-37
-35
-35
-41
-29
-47
-47
-43
-43
-51
-37
-45
-45
-41
-47
-47
-35
-43
-41
-33
-39
-43
-31
-35
-43
-31
-41
-35
-27
-41
-47
-35
-43
-45
-35
-39
-39
-29
-35
-43
-25
-35
-37
-35
-41
-47
-45
-43
-46
-39
-41
-47
-35
-45
-55
-41
-45
-44
-39
-41
-47
-41
-53
-55
-45
-55
-59
-47
-49
-63
-51
-61
-67
-59
-59
-63
-55
-52
-63
-57
-59
-67
-59
-61
-57
-47
-64
-63
-55
-67
-69
-61
-69
-71
-59
-61
-67
-63
-63
-73
-61
-65
-75
-65
-63
-63
-45
-37
-25
-21
-21
-19
5
27
45
69
75
69
71
49
31
21
-1
-17
-25
-45
-61
-65
-81
-89
-79
-83
-89
-87
-105
-101
-89
-91
-95
-105
-103
-97
-85
-89
-87
-79
-79
-95
-79
-39
-13
17
51
123
245
383
381
216
-5
-175
-279
-339
-340
-259
-189
-148
-101
-102
-101
-89
-99
-107
-97
-95
-107
-105
-97
-105
-97
-107
-107
-105
-105
-111
-99
-97
-107
-95
-107
-111
-107
-93
-95
-85
-91
-93
-75
-73
-77
-73
-77
-71
-61
-59
-55
-47
-45
-47
-23
-27
-19
3
7
11
41
51
57
77
85
93
113
131
141
163
168
169
189
209
209
215
200
197
200
187
171
159
129
105
89
65
43
25
11
-11
-15
-27
-43
-41
-57
-67
-63
-69
-83
-79
-78
-85
-79
-85
-97
-87
-96
-107
-89
-95
-103
-101
-93
-103
-95
-101
-107
-91
-99
-107
-95
-103
-95
-79
-93
-99
-91
-95
-101
-89
-95
-95
-85
-95
-107
-95
-101
-101
-89
-99
-103
-89
-83
-87
-89
-99
-105
-96
-83
-95
-95
-107
-107
-95
-89
-91
-85
-83
-84
-77
-85
-97
-89
-91
-95
-83
-89
-93
-75
-89
-91
-81
-87
-91
-85
-83
-89
-79
-84
-93
-81
-85
-85
-79
-89
-99
-79
-83
-85
-70
-77
-89
-77
-85
-83
-73
-83
-85
-77
-83
-87
-73
-69
-77
-77
-79
-77
-65
-67
-77
-67
-69
-63
-43
-35
-35
-11
-17
-5
5
19
57
77
81
91
77
53
41
21
-1
-3
-25
-37
-39
-47
-63
-59
-69
-67
-61
-63
-73
-57
-67
-63
-59
-69
-69
-51
-53
-59
-45
-55
-53
-35
-5
5
35
61
133
261
423
467
315
89
-98
-211
-283
-299
-243
-163
-107
-67
-47
-43
-43
-53
-55
-49
-54
-47
-37
-49
-47
-43
-45
-47
-45
-45
-47
-37
-27
-35
-17
-23
-25
-23
-19
-19
-15
-13
-15
-7
-7
-9
-5
-5
-5
1
5
11
27
35
33
53
55
65
81
85
95
113
125
137
159
165
177
191
211
213
237
253
256
273
277
275
287
281
279
279
261
253
248
232
209
191
169
147
144
127
104
89
69
59
61
53
27
35
25
25
23
19
11
23
13
5
15
13
11
13
17
7
11
11
9
21
17
11
19
17
13
21
16
17
29
25
21
25
17
15
31
27
33
29
19
19
27
25
21
31
21
17
31
23
21
23
17
13
25
13
21
23
17
21
33
25
17
25
21
17
23
19
17
29
23
19
23
27
21
23
27
17
33
27
21
27
25
21
33
23
25
27
21
25
29
27
21
31
21
23
33
23
17
37
27
23
35
27
25
37
35
33
33
33
27
35
29
25
33
29
23
35
27
27
31
35
33
33
27
31
39
33
37
37
37
53
63
69
65
81
84
89
111
125
145
175
175
167
173
153
129
121
97
77
71
43
31
29
16
7
16
7
-1
9
-1
-5
5
3
-3
13
7
1
19
11
13
19
17
17
49
83
95
133
179
289
458
627
597
418
205
5
-123
-203
-189
-111
-55
-15
9
9
5
9
13
5
13
13
3
7
5
3
-1
1
3
3
5
-9
5
5
1
5
-1
5
9
13
7
13
15
7
17
19
17
23
23
21
37
37
37
49
49
39
59
65
73
85
93
111
117
125
137
157
165
179
197
211
223
241
247
253
261
267
279
283
285
279
284
263
252
241
221
193
181
153
137
128
109
91
75
65
55
49
41
23
31
17
7
19
11
-1
-3
-1
-9
-1
-3
-7
-9
-13
-11
-13
-15
-13
-5
-13
-15
-11
-19
-21
-23
-19
-19
-18
-19
-21
-13
-19
-25
-19
-19
-27
-19
-21
-21
-15
-15
-27
-19
-31
-27
-19
-25
-27
-21
-21
-29
-21
-25
-35
-29
-33
-25
-25
-29
-41
-39
-39
-41
-29
-29
-33
-33
-35
-39
-39
-43
-43
-35
-41
-35
-29
-35
-51
-43
-47
-53
-45
-45
-47
-43
-53
-53
-49
-49
-41
-53
-51
-45
-45
-52
-45
-48
-65
-57
-53
-55
-47
-53
-55
-46
-49
-55
-51
-55
-53
-53
-55
-61
-59
-61
-61
-51
-57
-61
-49
-61
-67
-57
-69
-61
-37
-38
-35
-19
-21
-23
-11
-5
-1
35
63
73
89
75
53
51
19
-1
-3
-31
-53
-59
-71
-75
-75
-91
-95
-89
-95
-91
-91
-99
-101
-95
-105
-107
-85
-87
-93
-89
-85
-85
-79
-73
-43
-19
-5
21
89
185
325
409
301
77
-95
-238
-323
-347
-303
-227
-141
-112
-101
-91
-101
-99
-93
-91
-105
-97
-111
-102
-101
-99
-111
-101
-107
-105
-95
-93
-109
-107
-93
-101
-95
-99
-101
-93
-99
-97
-85
-89
-101
-93
-95
-99
-87
-83
-81
-71
-63
-63
-51
-57
-55
-41
-39
-31
-3
16
5
17
41
61
81
97
107
131
133
137
157
169
177
183
189
193
203
193
175
169
153
133
119
89
65
55
31
1
-1
-19
-35
-41
-57
-61
-57
-69
-77
-85
-93
-91
-81
-99
-105
-107
-115
-113
-105
-111
-117
-109
-115
-125
-111
-116
-121
-110
-103
-109
-105
-111
-119
-113
-113
-115
-107
-105
-105
-105
-117
-112
-101
-111
-117
-109
-121
-125
-109
-112
-123
-117
-119
-121
-115
-115
-117
-109
-117
-127
-113
-117
-123
-117
-123
-129
-107
-109
-102
-99
-107
-105
-103
-111
-109
-99
-101
-111
-101
-95
-107
-95
-99
-105
-97
-105
-99
-91
-95
-101
-93
-93
-99
-87
-93
-95
-89
-93
-93
-89
-85
-93
-81
-85
-91
-83
-87
-93
-85
-87
-93
-85
-85
-83
-83
-89
-91
-79
-89
-87
-79
-80
-77
-63
-59
-57
-47
-51
-39
-17
-11
9
41
59
79
83
67
49
37
13
-3
-11
-29
-51
-51
-63
-67
-69
-63
-71
-77
-73
-69
-63
-67
-69
-71
-69
-65
-57
-59
-57
-47
-39
-37
-39
-15
3
35
63
107
215
360
473
411
203
3
-138
-236
-279
-249
-180
-107
-53
-37
-41
-37
-45
-35
-37
-35
-37
-39
-37
-33
-31
-37
-31
-45
-50
-43
-39
-39
-31
-37
-39
-31
-13
-17
-19
-19
-23
-13
-15
-15
-13
-9
-9
-2
9
13
19
15
13
25
33
41
49
59
67
89
97
113
127
135
151
157
181
191
213
221
233
249
257
261
269
275
272
277
277
265
257
241
231
211
189
169
151
127
113
97
95
81
57
49
39
29
29
23
23
17
13
17
13
13
17
5
5
5
-1
3
1
1
-1
-3
-1
-1
1
1
9
-3
0
5
19
13
13
11
5
11
19
9
16
11
17
17
13
23
15
11
11
19
13
13
7
13
13
23
21
5
13
21
9
17
21
17
23
15
17
17
19
23
18
17
27
25
17
25
19
13
29
21
17
27
29
19
25
23
21
33
19
21
25
23
21
29
19
17
23
21
17
25
13
7
15
17
16
23
15
13
19
13
5
21
27
15
23
23
23
27
19
19
25
21
19
29
25
27
29
23
21
29
29
29
37
25
25
45
48
51
65
69
73
85
95
103
129
147
161
169
161
133
121
101
81
73
49
31
25
11
5
11
5
-1
-3
-11
-13
1
-1
-7
3
-3
-3
5
-1
-1
16
21
17
27
47
67
93
109
151
261
419
573
587
393
173
-3
-137
-221
-217
-145
-87
-37
-25
-19
-15
-31
-31
-27
-33
-29
-19
-21
-29
-21
-27
-31
-25
-31
-31
-25
-25
-31
-25
-35
-29
-27
-31
-25
-25
-31
-37
-23
-27
-27
-29
-29
-23
-5
-9
-9
3
-1
-5
13
15
27
39
45
53
77
91
93
111
119
133
153
173
184
201
211
223
245
243
248
259
257
257
249
243
223
213
189
165
141
125
99
81
65
45
25
17
-1
-3
-11
-25
-27
-27
-39
-33
-47
-55
-43
-51
-57
-51
-59
-75
-79
-73
-73
-61
-73
-79
-73
-85
-87
-81
-79
-80
-77
-87
-79
-79
-81
-85
-61
-69
-73
-73
-79
-83
-77
-79
-75
-77
-85
-67
-67
-67
-67
-71
-77
-73
-77
-77
-65
-65
-77
-79
-83
-81
-71
-75
-79
-61
-69
-79
-71
-79
-87
-75
-80
-85
-71
-69
-75
-65
-77
-81
-75
-79
-83
-81
-87
-83
-77
-75
-75
-77
-81
-93
-73
-73
-87
-80
-89
-95
-75
-77
-75
-73
-85
-83
-77
-89
-91
-73
-77
-85
-85
-91
-91
-77
-87
-85
-65
-83
-95
-73
-77
-83
-75
-75
-73
-63
-59
-57
-37
-43
-31
-19
7
33
55
53
49
39
13
-11
-15
-33
-63
-65
-83
-95
-99
-103
-113
-105
-117
-117
-109
-110
-117
-109
-119
-111
-105
-117
-113
-105
-107
-112
-99
-95
-94
-61
-41
-25
17
100
239
395
373
181
-37
-209
-313
-369
-361
-297
-209
-153
-129
-111
-109
-119
-111
-117
-121
-117
-130
-125
-119
-121
-119
-119
-125
-131
-121
-133
-129
-117
-121
-125
-117
-119
-121
-113
-107
-111
-93
-93
-99
-91
-91
-97
-79
-77
-75
-59
-63
-59
-47
-45
-41
-19
-11
-9
11
17
33
51
59
69
99
107
117
145
159
161
185
187
193
215
215
221
227
219
209
205
183
167
159
133
101
95
71
51
37
19
3
1
-13
-25
-25
-41
-47
-39
-47
-57
-53
-63
-63
-57
-67
-67
-59
-67
-63
-49
-59
-61
-47
-57
-57
-45
-55
-47
-39
-43
-33
-41
-39
-35
-35
-33
-27
-31
-27
-21
-31
-37
-27
-23
-23
-15
-21
-29
-21
-29
-27
-21
-17
-27
-15
-16
-17
-15
-13
-29
-21
-15
-21
-9
-15
-16
-15
-11
-23
-9
-23
-17
-15
-15
-17
-1
-11
-7
-3
-1
-1
5
-1
-11
-1
-1
-3
7
-1
-7
-3
-5
-7
1
-5
-5
5
-1
5
9
-3
-7
3
3
3
17
7
7
11
5
9
19
9
11
17
9
7
5
1
11
13
5
1
11
9
7
13
9
11
23
21
25
35
37
45
61
61
69
85
93
115
151
164
161
165
149
121
113
107
81
61
39
35
27
7
3
1
-1
-7
1
1
-5
1
1
5
7
1
-3
7
7
9
17
5
16
35
57
77
113
149
252
399
581
647
511
293
75
-77
-191
-201
-133
-59
-15
17
21
15
11
5
3
17
13
13
19
17
15
17
17
17
23
27
19
23
21
21
27
23
27
27
27
25
31
33
35
37
35
31
49
53
49
60
61
57
73
69
73
89
91
93
109
117
129
155
165
171
197
209
223
245
259
264
285
289
295
313
325
325
337
337
339
341
325
305
297
281
265
249
219
201
187
169
155
149
133
117
117
87
87
93
85
81
81
77
73
73
67
63
69
67
65
71
65
59
67
61
61
69
61
61
65
59
57
69
59
53
65
59
63
73
63
57
65
67
69
69
61
53
65
59
63
63
69
59
63
59
61
71
65
61
75
68
59
71
57
61
59
55
57
63
61
61
67
57
55
65
65
63
71
61
59
65
65
59
57
61
57
65
61
55
61
63
65
69
61
55
63
55
55
69
61
59
53
53
57
67
63
57
57
49
49
63
53
57
65
57
53
55
49
41
53
48
53
57
51
59
59
53
45
53
49
45
49
43
39
55
53
57
69
71
79
99
99
101
113
132
155
181
185
181
171
147
125
115
97
75
67
45
37
29
19
13
19
3
5
16
11
-1
13
11
13
21
17
13
23
25
13
29
29
29
69
85
97
141
203
309
492
626
553
345
123
-51
-166
-219
-181
-99
-45
-15
15
17
5
5
3
1
5
1
-3
-1
-7
-7
1
-1
-19
-11
-7
-1
-7
-7
-13
-5
-5
-9
-9
-11
-7
-1
-5
-11
-5
-11
-7
-1
1
9
13
5
11
33
39
37
53
57
51
65
73
91
107
113
127
145
161
173
203
205
217
235
243
249
267
275
269
277
277
271
273
247
231
223
203
173
161
131
113
103
85
53
51
39
27
17
9
-5
-7
-11
-15
-13
-11
-15
-11
-21
-25
-21
-29
-35
-33
-45
-47
-43
-49
-53
-43
-37
-41
-45
-49
-57
-47
-57
-59
-47
-49
-59
-59
-65
-75
-51
-53
-53
-53
-57
-63
-51
-59
-61
-55
-55
-59
-57
-59
-59
-61
-61
-63
-63
-61
-67
-55
-57
-63
-59
-65
-69
-63
-73
-79
-67
-73
-67
-63
-61
-71
-63
-79
-79
-71
-67
-73
-65
-73
-73
-69
-75
-79
-79
-79
-79
-61
-79
-73
-67
-71
-83
-73
-83
-85
-81
-89
-90
-85
-77
-79
-79
-79
-93
-91
-95
-97
-91
-90
-99
-91
-89
-89
-85
-89
-95
-93
-95
-107
-89
-89
-83
-71
-73
-77
-49
-47
-35
-7
21
41
53
33
25
17
-1
-28
-39
-61
-73
-81
-101
-115
-117
-125
-131
-127
-129
-133
-129
-129
-133
-115
-127
-143
-133
-129
-129
-121
-121
-117
-109
-111
-105
-73
-65
-41
11
121
257
396
345
141
-57
-223
-332
-379
-363
-293
-211
-169
-135
-109
-123
-129
-117
-123
-129
-129
-129
-127
-123
-121
-129
-129
-125
-121
-109
-111
-115
-114
-119
-121
-115
-115
-113
-105
-111
-109
-85
-85
-93
-87
-77
-77
-75
-77
-71
-63
-63
-61
-47
-41
-37
-21
-7
1
19
29
35
55
73
89
109
119
131
139
155
181
185
185
205
213
225
241
229
219
219
212
199
185
161
141
129
107
89
85
63
43
25
9
1
5
-9
-19
-11
-19
-27
-19
-25
-35
-41
-41
-43
-35
-43
-45
-35
-35
-37
-17
-31
-37
-29
-27
-27
-15
-25
-23
-15
-25
-23
-19
-16
-19
-13
-11
-15
-5
-9
-11
-11
-16
-19
-13
-13
-13
-7
-19
-23
-9
-15
-19
-11
-19
-17
-7
-9
-11
1
-9
-9
-7
-11
-21
-9
-15
-15
-3
-3
-15
-3
-3
-13
-5
-1
-9
1
-9
-11
-1
-1
-5
7
1
-11
5
5
-7
11
-1
-3
13
3
1
3
-1
-5
5
-1
-3
5
-3
-7
3
-1
-1
7
-7
-5
5
5
-3
13
3
-3
3
7
3
13
7
-3
9
15
7
21
19
29
33
37
49
63
63
73
89
109
127
159
157
151
145
132
101
95
77
53
43
33
19
6
-3
-15
-1
-7
-7
-1
-5
-11
-1
-11
-13
-1
-1
-1
7
3
9
19
11
23
49
73
93
135
211
329
531
631
527
339
123
-63
-169
-220
-173
-85
-29
3
23
15
27
13
13
9
11
7
3
9
1
3
7
3
-1
13
3
9
17
13
7
13
19
13
13
9
7
17
23
21
25
27
25
31
37
45
43
49
57
69
65
79
83
91
103
117
123
141
153
155
177
193
201
219
233
247
265
269
277
297
303
299
313
313
307
309
301
291
279
261
240
231
201
173
165
149
127
119
109
91
93
85
63
65
57
41
53
43
45
41
33
21
33
31
29
31
29
19
29
25
23
21
17
5
13
13
17
21
16
11
25
13
9
19
3
3
17
9
11
19
13
11
13
13
5
17
11
11
17
21
17
19
17
11
15
13
13
21
17
5
11
9
-1
9
11
3
13
5
3
9
11
-1
3
-5
-3
3
-3
-5
1
-3
-9
-1
-5
-7
1
-3
-11
-5
-12
-13
-11
-11
-5
-9
-13
-15
-9
-15
-11
-5
-1
-11
1
-11
-5
-3
-7
-13
-3
-5
-5
3
3
3
3
-5
-11
5
-1
-9
-3
-1
-11
-5
-1
3
17
21
23
41
41
41
63
71
87
121
127
121
121
105
77
69
47
27
7
-13
-17
-15
-28
-45
-45
-57
-59
-55
-59
-63
-59
-59
-57
-57
-61
-61
-61
-59
-63
-53
-47
-48
-29
9
31
57
97
167
321
475
465
280
37
-151
-255
-320
-315
-225
-155
-103
-69
-69
-67
-51
-59
-67
-67
-69
-75
-71
-71
-79
-77
-75
-75
-63
-75
-67
-59
-55
-51
-59
-53
-55
-63
-63
-55
-51
-43
-39
-47
-43
-41
-37
-43
-33
-37
-31
-19
-13
-11
1
-3
-1
19
25
29
49
59
69
87
101
115
131
139
153
171
181
199
221
219
227
237
233
233
241
233
213
195
179
159
143
113
93
69
57
25
19
9
-7
-15
-11
-29
-19
-27
-48
-61
-69
-73
-69
-73
-79
-71
-65
-71
-67
-69
-75
-79
-85
-89
-85
-93
-95
-83
-77
-91
-75
-83
-85
-79
-89
-91
-83
-87
-95
-85
-87
-77
-69
-73
-91
-89
-85
-93
-77
-71
-89
-89
-93
-89
-81
-85
-83
-83
-83
-87
-93
-89
-85
-91
-89
-89
-89
-89
-85
-89
-99
-93
-93
-99
-96
-101
-103
-96
-95
-93
-83
-95
-101
-89
-101
-109
-93
-95
-105
-89
-89
-103
-93
-91
-93
-79
-81
-101
-91
-93
-93
-77
-85
-99
-99
-107
-101
-85
-89
-91
-89
-98
-103
-89
-89
-93
-81
-85
-85
-73
-63
-67
-47
-45
-41
-27
-9
23
51
59
49
55
43
17
11
-15
-41
-45
-63
-77
-87
-89
-103
-91
-89
-97
-93
-101
-107
-95
-97
-95
-91
-85
-89
-97
-97
-91
-87
-91
-80
-63
-39
-21
-1
49
135
273
409
396
199
-26
-185
-282
-330
-311
-245
-169
-115
-83
-69
-67
-61
-67
-63
-61
-62
-63
-55
-53
-61
-59
-51
-51
-51
-54
-48
-59
-53
-47
-47
-47
-47
-47
-31
-39
-35
-19
-21
-16
-19
-21
-5
-7
-7
5
9
17
27
31
39
53
57
69
75
89
103
113
121
141
157
173
192
201
213
233
249
253
261
271
277
281
293
301
293
277
265
257
241
221
205
185
165
153
143
125
105
83
69
61
61
47
37
25
23
23
33
21
17
25
31
19
17
13
17
21
21
31
21
25
33
27
25
35
33
21
23
29
29
45
29
25
33
27
19
37
37
35
33
25
29
35
33
41
47
33
25
35
37
31
37
33
33
43
41
31
37
29
25
29
21
27
37
33
21
29
27
21
31
29
27
29
29
25
33
37
25
29
23
33
43
41
27
41
39
41
53
41
33
45
43
43
49
33
39
55
45
43
49
49
39
45
45
49
49
51
45
49
51
49
57
49
51
57
49
45
55
49
43
49
49
65
81
81
85
97
109
97
115
125
139
175
187
195
195
189
157
145
125
109
101
83
65
65
48
41
43
37
27
35
25
29
37
27
25
27
27
21
37
43
37
37
37
39
59
85
107
135
171
249
393
562
659
547
329
123
-41
-151
-193
-123
-45
3
37
43
39
33
29
27
41
39
41
31
27
41
41
33
39
37
37
49
43
43
45
41
39
49
41
39
43
37
39
51
53
53
53
51
49
67
71
73
85
79
77
91
97
97
113
113
129
153
157
163
181
197
209
231
241
249
267
275
293
313
313
321
329
325
321
331
329
313
309
287
261
251
229
213
197
173
149
145
132
113
101
93
73
71
65
57
63
57
47
49
41
37
43
35
33
33
35
31
35
31
23
25
23
23
35
35
21
27
15
13
17
17
13
17
17
17
27
17
17
23
11
9
17
11
9
9
11
17
23
13
3
7
1
1
11
7
1
9
5
7
7
-1
3
7
-1
5
9
-5
-13
5
-3
-5
3
-1
-3
7
3
-3
5
-3
-1
5
-7
-5
5
1
-1
1
-7
-7
5
-1
-7
-3
-3
-7
-1
-5
-9
1
1
3
1
-1
-7
-1
-3
-1
1
3
-1
1
-9
-9
-1
-1
-3
-7
-13
-15
-3
-9
-3
-3
-13
-11
1
11
13
27
25
35
43
47
59
93
107
117
123
115
97
75
49
31
27
3
-9
-15
-33
-46
-43
-43
-55
-57
-59
-63
-49
-57
-59
-57
-65
-63
-57
-63
-59
-57
-53
-53
-41
-35
9
23
51
93
173
299
461
470
293
79
-109
-233
-295
-297
-233
-153
-110
-80
-65
-65
-75
-69
-71
-69
-61
-57
-65
-55
-67
-69
-59
-61
-73
-65
-67
-73
-67
-71
-79
-73
-67
-73
-71
-71
-67
-65
-73
-69
-67
-61
-61
-59
-53
-49
-41
-47
-29
-25
-27
-29
-9
-1
-3
21
27
25
51
63
69
95
99
111
137
155
173
181
193
197
217
215
213
211
211
201
205
189
175
157
125
109
101
73
45
47
33
5
-5
-23
-49
-43
-50
-51
-55
-61
-77
-71
-73
-83
-69
-77
-91
-87
-93
-101
-91
-99
-95
-89
-99
-103
-101
-105
-107
-97
-101
-111
-101
-101
-95
-99
-95
-101
-99
-103
-107
-105
-107
-107
-103
-109
-106
-93
-95
-101
-95
-107
-115
-105
-107
-113
-109
-105
-99
-97
-105
-112
-105
-107
-101
-95
-105
-113
-101
-99
-103
-99
-105
-111
-103
-93
-103
-96
-101
-97
-86
-89
-91
-87
-105
-103
-93
-97
-109
-101
-102
-117
-99
-97
-106
-101
-107
-103
-105
-105
-107
-85
-97
-109
-95
-95
-111
-105
-103
-111
-99
-105
-98
-87
-93
-105
-95
-89
-87
-75
-69
-79
-69
-57
-51
-21
-13
9
37
53
41
37
17
-11
-19
-35
-59
-73
-89
-97
-91
-112
-123
-113
-119
-129
-121
-121
-123
-117
-119
-117
-107
-107
-117
-111
-108
-89
-91
-91
-79
-67
-47
-19
-1
49
163
311
413
330
113
-105
-226
-319
-343
-315
-245
-176
-113
-85
-89
-89
-93
-93
-81
-89
-91
-85
-85
-91
-83
-81
-83
-77
-87
-85
-77
-79
-81
-77
-75
-85
-79
-75
-79
-65
-67
-75
-63
-47
-49
-41
-41
-41
-33
-23
-19
-1
-11
-15
5
13
23
31
43
49
63
71
85
111
115
133
147
163
181
201
205
211
225
239
241
251
253
253
265
261
251
243
217
191
185
168
139
129
105
83
85
61
53
51
35
23
21
11
3
1
1
-3
17
5
-5
1
-5
-11
1
-13
-9
5
-11
-11
3
-1
-5
9
3
-5
1
1
1
9
13
1
9
7
9
23
5
3
17
9
5
13
15
17
21
17
13
27
21
11
21
25
27
33
23
21
27
22
19
25
25
27
29
23
25
35
33
27
29
25
17
23
25
21
27
33
21
39
37
31
37
33
25
35
37
25
39
31
27
39
39
37
37
35
29
51
39
39
41
37
25
41
41
41
41
49
37
49
45
45
45
41
37
45
43
41
41
45
37
55
61
49
65
65
75
89
97
101
117
119
143
177
189
177
181
165
141
131
117
99
83
71
55
59
47
49
33
21
29
25
33
39
35
37
39
29
27
49
49
45
55
49
39
53
77
85
121
156
213
333
493
672
693
509
279
73
-89
-191
-162
-93
-29
19
35
43
57
43
29
25
35
27
29
27
35
27
29
33
43
37
37
43
37
31
33
33
29
39
45
43
61
59
49
39
43
43
53
53
45
57
51
49
65
69
81
105
116
117
123
137
147
169
167
173
195
193
201
233
249
249
280
289
303
317
323
337
353
341
339
347
333
313
320
301
275
259
225
207
189
179
165
165
133
113
95
73
61
65
55
57
61
61
51
53
49
47
65
69
49
37
19
9
25
27
25
43
39
19
13
9
11
19
19
16
23
25
15
17
13
9
17
17
21
29
17
5
9
-7
-1
11
13
1
21
17
5
13
3
-3
-1
1
-3
-1
-3
-3
13
7
-9
-10
-11
-11
-7
-25
-23
-5
-1
-3
3
-1
-23
-19
-25
-35
-29
-23
-15
-13
-15
-29
-37
-41
-31
-21
-19
-13
1
-9
-17
-19
-37
-47
-31
-31
-35
-15
-19
-31
-23
-33
-31
-19
-39
-43
-33
-29
-35
-35
-41
-47
-27
-31
-33
-21
-15
-11
-3
-1
5
21
29
39
69
83
89
107
93
71
55
41
37
21
-27
-59
-55
-61
-67
-59
-61
-63
-73
-83
-85
-77
-75
-79
-75
-81
-97
-83
-89
-87
-67
-69
-70
-51
-41
-29
-9
3
45
141
259
397
401
227
9
-162
-276
-335
-331
-261
-181
-123
-101
-97
-103
-111
-123
-109
-97
-101
-107
-109
-115
-109
-114
-113
-101
-99
-96
-105
-110
-105
-91
-93
-105
-95
-99
-89
-81
-83
-89
-89
-87
-77
-75
-87
-89
-67
-51
-55
-51
-63
-73
-63
-47
-48
-23
-25
-19
7
19
27
49
67
60
59
59
81
119
133
119
139
149
167
181
173
163
177
163
155
147
135
113
91
65
47
35
17
-21
-27
-45
-63
-65
-75
-85
-101
-99
-114
-105
-112
-117
-113
-117
-121
-113
-119
-123
-113
-119
-117
-111
-127
-137
-133
-139
-145
-141
-132
-135
-121
-131
-141
-121
-125
-119
-112
-121
-137
-129
-129
-137
-127
-127
-123
-111
-118
-129
-127
-133
-133
-121
-123
-123
-115
-129
-125
-123
-123
-121
-123
-121
-131
-123
-121
-127
-115
-125
-131
-123
-111
-113
-113
-119
-121
-113
-117
-123
-113
-113
-117
-109
-113
-117
-107
-107
-123
-110
-109
-111
-93
-111
-112
-107
-113
-112
-105
-113
-115
-111
-101
-117
-110
-107
-115
-99
-112
-115
-105
-105
-115
-109
-105
-105
-95
-89
-93
-75
-69
-65
-53
-45
-43
-15
9
35
57
47
45
25
5
-1
-13
-35
-53
-63
-79
-87
-99
-105
-99
-109
-117
-107
-113
-115
-111
-108
-107
-97
-95
-103
-93
-89
-95
-79
-78
-81
-61
-28
-9
33
89
185
361
493
425
247
37
-142
-250
-322
-297
-217
-145
-105
-75
-75
-75
-69
-67
-77
-70
-75
-79
-71
-73
-79
-65
-57
-61
-43
-47
-57
-51
-59
-57
-49
-47
-57
-43
-47
-47
-35
-41
-47
-41
-37
-37
-25
-27
-19
-13
-15
-11
-1
-1
3
11
19
25
45
59
69
83
101
103
129
141
145
161
171
183
209
213
221
236
237
248
257
257
245
257
241
220
217
188
163
145
125
103
103
93
59
53
27
-1
1
-13
-27
-16
-13
-11
-5
-11
-15
-25
-39
-41
-35
-37
-35
-31
-41
-53
-49
-59
-63
-57
-57
-53
-45
-47
-45
-37
-45
-43
-33
-31
-35
-25
-37
-45
-33
-41
-37
-15
-15
-27
-29
-29
-33
-25
-27
-29
-25
-33
-39
-25
-32
-41
-27
-31
-35
-31
-37
-33
-33
-39
-35
-29
-28
-39
-23
-41
-31
-29
-31
-37
-31
-31
-31
-27
-33
-39
-35
-35
-43
-23
-39
-33
-27
-31
-43
-31
-43
-37
-21
-29
-27
-27
-31
-39
-29
-31
-27
-25
-33
-39
-25
-25
-27
-25
-31
-33
-19
-25
-29
-23
-29
-33
-19
-23
-15
-1
9
15
17
33
35
57
75
93
105
113
101
101
77
61
51
29
13
-3
-19
-23
-31
-35
-45
-43
-45
-57
-49
-41
-37
-39
-45
-41
-33
-35
-37
-31
-39
-33
-29
-28
-3
33
51
87
153
261
441
589
517
307
101
-77
-189
-233
-208
-135
-73
-45
-25
-21
-17
-25
-19
-25
-31
-23
-19
-25
-21
-31
-30
-21
-27
-33
-29
-27
-35
-22
-25
-27
-25
-25
-33
-15
-17
-23
-13
-27
-15
-7
-7
-13
-1
-3
-5
7
11
17
25
25
37
51
63
65
89
89
101
121
131
141
169
177
181
205
221
229
237
241
245
265
271
267
281
271
261
253
239
207
193
165
147
135
121
103
85
59
43
43
23
5
5
-3
-9
-1
-3
-19
-15
-15
-25
-23
-19
-31
-31
-35
-33
-31
-37
-39
-37
-47
-51
-43
-37
-45
-39
-47
-43
-45
-39
-48
-47
-51
-47
-45
-45
-41
-41
-47
-45
-47
-53
-39
-43
-51
-49
-41
-41
-43
-47
-45
-47
-47
-37
-41
-47
-41
-48
-59
-45
-47
-53
-47
-55
-51
-42
-41
-51
-55
-53
-55
-45
-43
-47
-45
-51
-49
-33
-44
-55
-45
-47
-51
-39
-47
-49
-41
-45
-55
-51
-48
-53
-45
-53
-53
-49
-51
-59
-55
-55
-53
-51
-51
-41
-47
-51
-48
-41
-43
-47
-43
-49
-52
-35
-25
-29
-21
-21
-15
5
9
21
37
49
69
103
113
103
93
65
45
35
11
-11
-25
-41
-53
-55
-57
-63
-55
-65
-77
-73
-73
-77
-61
-67
-73
-65
-69
-69
-73
-71
-69
-55
-49
-39
3
13
29
73
149
281
418
401
229
45
-121
-226
-299
-307
-249
-169
-109
-81
-71
-61
-65
-59
-61
-71
-67
-63
-67
-69
-63
-63
-60
-71
-73
-75
-63
-63
-63
-63
-73
-67
-63
-59
-53
-47
-57
-51
-47
-40
-47
-39
-45
-48
-46
-35
-35
-31
-21
-11
1
13
17
13
33
39
60
73
93
97
109
119
131
161
169
187
199
207
225
237
243
245
257
249
247
237
231
211
185
163
145
128
113
93
71
41
27
17
5
-5
-15
-23
-27
-29
-29
-35
-41
-41
-43
-47
-47
-47
-47
-47
-47
-49
-41
-45
-49
-57
-47
-45
-48
-51
-47
-48
-43
-41
-45
-47
-33
-37
-35
-33
-39
-31
-35
-37
-31
-33
-23
-25
-32
-31
-25
-31
-31
-31
-41
-29
-39
-37
-29
-39
-33
-33
-41
-41
-29
-31
-37
-31
-31
-41
-29
-31
-37
-37
-41
-47
-29
-29
-37
-31
-35
-39
-27
-29
-33
-29
-37
-39
-29
-35
-39
-35
-31
-43
-29
-35
-41
-35
-43
-33
-27
-31
-35
-31
-31
-38
-31
-31
-31
-19
-23
-23
-15
-25
-19
-25
-25
-21
-21
-23
-15
-15
-13
5
15
17
29
23
29
49
65
89
119
125
112
109
81
61
59
33
9
-1
-19
-27
-29
-39
-43
-43
-53
-51
-45
-47
-57
-47
-51
-47
-39
-47
-43
-37
-39
-37
-27
-31
-23
17
41
61
111
213
365
560
586
411
207
5
-159
-252
-267
-198
-123
-77
-55
-41
-51
-49
-43
-45
-53
-51
-53
-51
-51
-51
-57
-47
-39
-43
-35
-41
-43
-41
-45
-43
-41
-37
-43
-41
-47
-39
-27
-25
-37
-29
-31
-25
-19
-27
-23
-7
-5
-13
1
13
13
21
29
37
61
61
71
89
95
105
131
139
153
175
179
185
207
213
221
237
229
239
251
241
233
231
213
185
181
161
133
119
93
73
61
45
29
25
7
-1
-1
-11
-11
-9
-25
-27
-23
-33
-31
-35
-37
-41
-41
-39
-45
-41
-47
-45
-39
-45
-41
-47
-57
-53
-41
-51
-45
-31
-45
-49
-35
-41
-43
-37
-49
-48
-45
-47
-47
-43
-43
-43
-39
-45
-45
-39
-43
-41
-25
-39
-43
-33
-39
-49
-35
-37
-43
-49
-59
-53
-59
-54
-57
-57
-61
-55
-43
-55
-45
-41
-41
-51
-41
-55
-59
-53
-53
-59
-57
-51
-57
-47
-57
-55
-41
-35
-47
-37
-45
-45
-35
-39
-45
-41
-45
-41
-31
-35
-41
-39
-39
-31
-35
-41
-31
-23
-31
-29
-31
-27
-17
-23
-19
-9
-7
1
25
25
21
41
60
77
105
117
107
101
85
59
53
35
17
3
-15
-29
-27
-43
-47
-45
-55
-61
-50
-49
-59
-57
-55
-63
-47
-55
-55
-47
-49
-51
-41
-41
-37
5
21
39
91
159
291
479
558
441
236
25
-145
-245
-284
-235
-133
-87
-57
-41
-51
-59
-57
-53
-55
-47
-57
-59
-49
-57
-61
-59
-47
-53
-35
-47
-53
-43
-49
-59
-47
-45
-53
-39
-47
-53
-41
-51
-47
-31
-33
-41
-31
-33
-37
-19
-23
-23
1
1
3
9
15
11
27
41
57
75
85
95
121
129
139
155
169
173
199
207
209
233
221
227
237
233
225
221
203
185
179
157
129
113
85
59
57
35
17
7
-1
-11
-9
-27
-32
-29
-37
-43
-41
-47
-57
-47
-55
-61
-57
-57
-65
-61
-73
-65
-59
-63
-65
-57
-65
-63
-51
-59
-61
-57
-63
-79
-63
-57
-65
-65
-71
-71
-59
-59
-63
-53
-63
-75
-57
-55
-53
-57
-57
-61
-53
-53
-63
-57
-63
-69
-61
-59
-69
-55
-57
-61
-51
-57
-59
-53
-59
-65
-47
-47
-47
-33
-53
-59
-51
-45
-47
-37
-41
-57
-47
-55
-59
-45
-53
-51
-41
-37
-47
-31
-37
-35
-25
-31
-38
-25
-27
-31
-31
-31
-17
-25
-31
-25
-29
-25
-21
-19
-23
-11
-15
-23
-15
-13
-19
1
1
9
19
27
41
43
49
61
93
113
129
133
123
105
93
71
61
43
21
-1
3
-13
-23
-21
-25
-35
-19
-29
-35
-25
-31
-35
-21
-25
-27
-23
-27
-25
-15
-7
-20
-11
17
33
68
101
141
253
395
542
516
330
112
-57
-177
-244
-205
-143
-67
-27
-1
-1
-1
-3
-11
-9
-11
-15
-3
-3
-16
-1
-11
-11
-7
-9
-11
-1
-11
-9
-1
-3
-5
-5
-1
-3
5
-1
-1
1
5
1
21
21
17
21
23
23
33
41
33
43
49
57
73
79
95
103
107
123
145
157
165
185
201
203
225
241
249
261
269
268
273
281
273
277
265
245
239
213
201
179
157
139
117
105
89
83
63
55
51
29
25
23
9
1
11
7
-3
5
-1
-3
-5
-3
-11
-5
-15
-19
-5
-9
-11
-9
-21
-19
-19
-13
-31
-15
-19
-27
-15
-13
-15
-5
-11
-27
-15
-13
-19
-11
-17
-29
-11
-13
-19
-17
-15
-31
-21
-19
-19
-21
-20
-25
-23
-15
-25
-15
-23
-27
-21
-21
-31
-15
-21
-29
-21
-21
-21
-19
-27
-27
-13
-23
-13
-15
-21
-27
-25
-23
-21
-15
-17
-21
-15
-23
-25
-9
-9
-23
-19
-15
-19
-17
-15
-21
-9
-15
-25
-15
-15
-15
-15
-21
-15
-7
-9
-11
-5
-9
-19
-9
-15
-15
-9
-13
-19
-7
-3
-11
-9
-15
-15
-3
1
9
9
19
21
33
35
45
71
83
107
125
121
101
87
59
41
29
17
-3
-19
-29
-45
-43
-45
-59
-47
-61
-65
-59
-63
-61
-61
-65
-75
-67
-63
-59
-59
-63
-65
-51
-43
-23
5
27
53
115
209
357
477
385
167
-39
-182
-283
-315
-273
-193
-119
-77
-68
-71
-73
-79
-65
-85
-83
-77
-83
-99
-83
-67
-73
-73
-75
-83
-71
-67
-79
-73
-75
-75
-73
-73
-79
-69
-73
-83
-77
-83
-87
-73
-73
-77
-63
-65
-67
-57
-55
-67
-53
-41
-35
-23
-15
-13
5
21
27
35
47
49
77
96
101
123
135
145
169
181
185
203
195
193
203
201
177
177
159
133
121
97
75
65
39
11
-13
-29
-35
-35
-47
-59
-67
-79
-85
-85
-101
-109
-103
-109
-117
-113
-117
-115
-115
-111
-123
-115
-127
-141
-135
-137
-139
-123
-133
-143
-129
-137
-139
-129
-129
-138
-129
-131
-135
-129
-139
-139
-131
-139
-141
-125
-129
-137
-137
-141
-147
-137
-143
-141
-131
-123
-135
-129
-133
-137
-135
-133
-131
-129
-129
-135
-129
-143
-141
-133
-129
-133
-131
-133
-143
-139
-145
-145
-127
-131
-127
-130
-135
-135
-129
-131
-123
-121
-125
-135
-137
-135
-123
-127
-131
-123
-129
-131
-131
-137
-141
-139
-141
-141
-133
-139
-141
-137
-144
-139
-139
-139
-135
-131
-133
-142
-139
-141
-137
-129
-133
-125
-113
-109
-101
-85
-79
-67
-31
-13
-3
-9
-25
-37
-39
-65
-77
-89
-117
-135
-139
-143
-157
-149
-165
-165
-153
-163
-167
-153
-161
-163
-157
-155
-157
-153
-147
-145
-145
-143
-145
-141
-129
-111
-87
-57
-13
91
219
332
283
99
-99
-246
-340
-385
-364
-288
-217
-159
-138
-137
-139
-141
-143
-138
-145
-151
-141
-143
-141
-137
-137
-137
-131
-131
-141
-133
-137
-129
-131
-129
-138
-133
-141
-141
-138
-140
-135
-121
-129
-129
-109
-107
-107
-93
-93
-99
-83
-89
-81
-67
-65
-63
-39
-37
-27
-9
-7
3
23
35
37
63
80
93
109
129
135
161
165
155
174
177
181
187
181
173
165
149
123
109
89
69
61
43
21
5
-17
-29
-32
-41
-51
-51
-57
-63
-59
-67
-71
-61
-67
-73
-59
-71
-73
-69
-77
-75
-65
-67
-75
-65
-69
-69
-61
-73
-69
-51
-51
-51
-47
-51
-57
-47
-49
-53
-43
-43
-51
-41
-47
-55
-45
-51
-47
-43
-45
-53
-41
-41
-47
-35
-43
-47
-33
-41
-41
-29
-33
-35
-29
-29
-27
-19
-27
-21
-21
-29
-27
-15
-19
-15
-15
-21
-23
-11
-13
-9
-13
-13
-13
-5
-11
-15
-7
-15
-15
-3
-9
-13
-3
-11
-11
-1
-5
-1
-3
-5
-3
-1
11
5
9
1
1
7
-1
-1
5
-3
-1
15
11
1
17
9
3
9
5
11
19
21
23
45
55
55
73
61
73
105
129
137
163
153
151
137
113
97
87
65
37
25
13
17
9
-5
-17
-13
-15
-15
-15
-23
-27
-15
-19
-15
-7
-9
-9
-7
-7
-11
7
3
21
57
75
97
143
227
372
541
581
419
217
15
-125
-223
-222
-157
-93
-45
-23
-3
-1
-5
-3
-15
-19
-9
-21
-15
-15
-15
-19
-15
-21
-23
-19
-23
-27
-19
-21
-19
-15
-23
-31
-21
-23
-21
-5
-9
-15
-13
-7
-1
9
7
3
17
23
19
27
35
39
53
63
67
83
99
99
117
127
137
161
177
189
207
213
225
245
251
257
281
283
277
285
281
275
275
257
247
233
213
185
169
151
129
123
105
93
85
69
45
51
35
29
29
21
13
19
13
7
11
3
-3
1
-5
-5
3
-1
-7
5
-3
-5
-1
-3
-13
-7
-5
-11
-7
-9
-11
-5
-9
-3
-3
-7
-13
-1
-9
-7
-3
-7
-9
-5
-9
-9
-1
-11
-13
-5
-5
-3
-1
-11
-9
3
-1
9
5
-3
-1
-1
1
17
13
-1
5
3
-1
5
1
-3
9
-1
1
13
7
3
11
5
-1
7
3
-3
1
-1
-5
19
7
-3
5
-1
-5
3
-5
-11
1
-4
-15
-1
-5
-15
3
-9
-3
1
-3
-15
-3
-11
-13
-1
-13
-17
-11
-9
-15
-7
-11
-23
-9
-11
-13
-9
-21
-17
-7
-9
-5
11
17
21
27
27
31
49
65
81
113
113
117
113
101
69
59
37
19
17
-1
-19
-27
-35
-43
-39
-47
-53
-47
-51
-57
-53
-47
-48
-45
-48
-53
-43
-49
-43
-37
-47
-47
-23
5
23
49
85
167
305
475
540
399
169
-37
-169
-267
-298
-219
-149
-101
-67
-65
-65
-65
-77
-81
-75
-80
-83
-79
-91
-93
-78
-65
-69
-67
-73
-81
-71
-79
-79
-73
-77
-89
-73
-71
-77
-73
-83
-81
-71
-73
-71
-65
-71
-68
-57
-57
-55
-41
-35
-35
-21
-23
-21
-5
-7
13
29
45
43
65
73
80
97
119
128
151
149
157
181
183
185
201
193
183
191
193
169
169
149
121
109
93
69
51
35
17
1
-19
-31
-51
-63
-67
-71
-67
-75
-81
-85
-83
-91
-85
-101
-97
-103
-105
-107
-105
-111
-111
-103
-115
-117
-121
-110
-113
-119
-121
-125
-125
-107
-111
-123
-121
-114
-121
-117
-123
-121
-111
-119
-119
-116
-117
-117
-117
-119
-117
-119
-121
-111
-121
-124
-109
-117
-121
-121
-123
-127
-121
-125
-121
-115
-127
-129
-123
-131
-133
-123
-125
-129
-129
-137
-140
-129
-129
-129
-123
-135
-133
-129
-131
-135
-133
-131
-143
-129
-138
-149
-133
-135
-145
-139
-137
-147
-143
-141
-143
-141
-143
-149
-133
-144
-154
-143
-145
-153
-141
-149
-141
-131
-137
-129
-129
-137
-141
-139
-148
-153
-139
-137
-135
-123
-125
-111
-105
-97
-93
-79
-67
-57
-23
1
7
5
-7
-39
-41
-57
-79
-83
-111
-129
-135
-149
-151
-141
-163
-171
-163
-174
-171
-158
-169
-177
-163
-163
-169
-163
-165
-169
-157
-171
-173
-153
-139
-125
-105
-89
-53
25
157
285
293
125
-73
-229
-343
-411
-413
-367
-293
-219
-189
-187
-183
-185
-197
-193
-181
-181
-187
-192
-183
-179
-185
-185
-181
-183
-173
-183
-179
-181
-178
-181
-175
-175
-176
-185
-188
-183
-173
-165
-165
-143
-145
-147
-141
-137
-139
-137
-129
-124
-119
-107
-105
-93
-85
-67
-63
-47
-39
-27
-19
-11
13
29
47
57
65
73
95
107
113
113
123
117
125
131
123
121
113
93
77
61
41
19
1
-5
-23
-35
-53
-61
-78
-91
-101
-99
-105
-105
-103
-107
-117
-111
-115
-115
-121
-123
-125
-119
-121
-121
-121
-123
-103
-97
-105
-109
-112
-103
-105
-95
-87
-79
-91
-89
-87
-75
-77
-79
-85
-83
-85
-79
-79
-75
-85
-89
-75
-77
-81
-75
-75
-73
-79
-73
-77
-73
-71
-81
-73
-79
-83
-75
-77
-85
-73
-81
-77
-73
-80
-85
-75
-75
-75
-63
-67
-75
-65
-69
-75
-65
-71
-71
-59
-63
-63
-59
-67
-67
-59
-67
-63
-47
-57
-69
-59
-63
-61
-53
-57
-59
-61
-61
-55
-49
-57
-57
-47
-49
-51
-39
-39
-49
-51
-51
-48
-41
-43
-47
-43
-45
-48
-35
-33
-41
-43
-39
-41
-21
-37
-31
-17
-13
-3
11
17
17
35
43
69
101
111
97
93
73
51
49
33
5
-1
-25
-41
-39
-47
-57
-59
-57
-69
-57
-63
-69
-63
-57
-61
-53
-57
-63
-51
-49
-47
-37
-45
-45
-21
7
29
65
127
221
399
568
545
379
155
-41
-173
-261
-253
-173
-101
-65
-35
-33
-45
-45
-53
-44
-43
-35
-45
-43
-45
-53
-39
-39
-45
-33
-39
-41
-31
-37
-39
-33
-39
-35
-31
-29
-41
-25
-25
-31
-23
-25
-27
-13
-9
-9
-1
-9
-3
5
7
11
25
31
39
59
61
81
93
101
107
135
137
151
171
181
193
223
235
237
255
253
257
273
273
265
267
251
229
223
207
189
173
144
119
113
107
87
81
63
43
41
33
23
23
13
9
11
5
19
5
-1
5
-1
1
15
-1
-11
-1
-7
-7
1
-5
-5
-1
-11
-11
-7
-13
-15
-11
-11
-13
-7
-9
-15
-5
-3
-15
-5
-9
-15
-9
-11
-15
-7
-7
-11
-1
-9
-13
-9
-16
-21
-5
-25
-16
-15
-11
-21
-11
-13
-25
-13
-13
-21
-11
-21
-17
-11
-13
-19
-15
-15
-21
-13
-13
-21
-17
-19
-27
-11
-17
-23
-15
-25
-21
-9
-17
-23
-15
-27
-25
-15
-23
-23
-13
-21
-21
-15
-13
-19
-15
-21
-23
-7
-25
-25
-15
-23
-29
-15
-19
-21
-17
-23
-25
-21
-23
-23
-23
-15
-19
-15
-23
-23
-19
-29
-37
-15
-17
-15
-3
-3
-3
17
13
25
29
33
53
85
101
107
103
89
63
55
33
13
-1
-15
-43
-43
-53
-61
-59
-61
-65
-53
-67
-67
-67
-67
-75
-65
-63
-63
-59
-67
-65
-51
-49
-47
-39
-18
5
33
67
113
220
381
531
510
315
89
-85
-221
-290
-249
-167
-109
-63
-67
-67
-57
-67
-67
-57
-65
-69
-61
-67
-59
-51
-53
-63
-55
-59
-55
-53
-47
-55
-47
-59
-55
-51
-59
-57
-57
-52
-57
-43
-43
-44
-45
-45
-41
-29
-35
-27
-14
-11
-15
1
7
9
23
29
41
53
69
76
95
99
115
143
145
157
181
189
195
217
217
217
233
235
245
235
223
227
201
185
185
161
133
113
89
73
65
48
27
7
-9
-19
-15
-23
-37
-33
-41
-47
-39
-45
-45
-51
-61
-63
-59
-65
-63
-61
-67
-79
-73
-77
-81
-77
-79
-89
-80
-83
-97
-83
-81
-87
-83
-79
-89
-83
-89
-95
-83
-85
-90
-80
-95
-101
-87
-91
-93
-87
-89
-97
-89
-89
-95
-91
-93
-101
-87
-93
-95
-89
-95
-99
-99
-99
-105
-93
-105
-105
-89
-91
-93
-91
-102
-103
-93
-95
-101
-95
-107
-107
-93
-101
-105
-107
-107
-109
-101
-97
-95
-93
-103
-112
-111
-105
-109
-97
-109
-110
-95
-99
-111
-99
-105
-109
-105
-107
-123
-109
-107
-110
-103
-110
-119
-103
-105
-119
-109
-105
-109
-111
-118
-123
-109
-107
-105
-99
-103
-103
-83
-73
-69
-55
-47
-35
-1
19
35
45
27
-1
-9
-41
-59
-69
-93
-108
-107
-119
-135
-137
-141
-149
-149
-149
-142
-137
-145
-153
-141
-147
-145
-141
-138
-141
-125
-131
-127
-115
-107
-85
-63
-35
5
105
245
339
271
93
-89
-224
-326
-377
-347
-276
-199
-141
-135
-137
-137
-142
-153
-147
-141
-149
-135
-133
-135
-131
-135
-141
-141
-141
-139
-137
-139
-147
-145
-139
-139
-129
-129
-135
-131
-141
-149
-131
-113
-117
-113
-113
-115
-97
-99
-95
-85
-97
-97
-75
-71
-61
-45
-43
-45
-25
-15
5
11
17
31
53
65
89
103
105
127
135
145
161
168
165
169
167
153
151
135
117
107
95
71
65
43
15
-4
-27
-45
-45
-59
-81
-81
-91
-99
-95
-105
-109
-99
-107
-109
-107
-116
-123
-115
-121
-121
-117
-112
-125
-119
-123
-123
-115
-121
-127
-115
-121
-115
-109
-113
-117
-99
-107
-107
-99
-105
-109
-97
-107
-105
-95
-99
-101
-96
-105
-99
-89
-105
-109
-99
-101
-105
-95
-95
-103
-101
-101
-103
-101
-105
-115
-101
-103
-105
-99
-93
-101
-95
-105
-98
-91
-93
-91
-95
-103
-97
-99
-93
-95
-89
-99
-99
-89
-93
-95
-83
-85
-95
-89
-91
-101
-89
-87
-87
-81
-93
-94
-85
-97
-99
-83
-81
-89
-87
-89
-89
-81
-83
-83
-77
-84
-94
-77
-75
-77
-75
-73
-78
-73
-71
-69
-61
-61
-65
-49
-43
-37
-25
-25
-21
-7
7
23
49
77
83
89
81
59
49
25
9
-3
-25
-35
-37
-53
-59
-57
-57
-69
-61
-67
-67
-59
-61
-73
-67
-61
-65
-55
-55
-59
-53
-69
-63
-47
-23
-1
31
55
97
201
353
510
508
323
103
-73
-201
-283
-269
-203
-129
-75
-43
-41
-35
-35
-41
-39
-43
-47
-41
-35
-41
-31
-31
-37
-25
-37
-35
-35
-37
-31
-21
-28
-31
-27
-25
-25
-23
-29
-25
-15
-11
-19
-11
-7
3
-1
3
25
17
25
37
39
45
59
63
63
87
91
105
133
133
145
165
177
187
207
223
229
235
251
257
273
279
280
289
280
281
279
263
241
236
205
189
169
155
137
125
105
85
87
73
57
65
53
37
31
25
17
13
9
5
13
9
9
11
7
1
9
3
-1
7
5
-1
5
1
-1
7
5
-5
5
3
5
11
7
5
17
13
3
17
7
3
12
3
3
17
13
3
21
13
1
7
3
-1
13
15
5
7
9
3
5
3
-1
5
-1
-1
11
7
5
1
-3
-3
-1
1
-3
7
1
-5
7
-3
-1
9
1
-5
-1
3
-5
-1
-9
-16
-5
-7
-9
-5
-11
-11
-1
-9
-9
1
-1
-11
-1
-9
-1
-1
3
-3
-5
-5
1
7
3
1
-1
1
1
11
1
-11
-5
-5
1
5
1
1
5
5
1
11
5
1
13
17
19
33
35
39
51
49
59
81
97
113
139
145
135
133
117
97
81
63
47
33
11
-3
-9
-17
-31
-25
-27
-35
-25
-35
-37
-23
-31
-37
-27
-31
-29
-23
-29
-21
-15
-25
-17
13
33
55
89
133
241
387
560
551
387
165
-19
-153
-235
-229
-143
-86
-57
-9
-21
-21
-21
-21
-27
-27
-29
-15
-21
-27
-15
-31
-31
-21
-27
-31
-25
-25
-31
-31
-35
-31
-23
-23
-29
-15
-17
-29
-16
-13
-23
-7
-15
-15
-1
7
7
17
17
13
29
33
35
51
59
65
87
99
105
123
128
141
165
181
195
211
219
227
243
245
245
261
261
255
265
253
249
243
225
209
199
179
151
135
115
91
83
69
53
49
45
11
11
-1
-3
3
-9
-13
-3
-13
-15
-11
-19
-25
-19
-29
-35
-29
-29
-39
-39
-35
-43
-35
-36
-41
-39
-43
-41
-25
-35
-37
-39
-35
-39
-23
-35
-43
-31
-35
-41
-27
-35
-43
-39
-43
-47
-35
-41
-45
-39
-45
-49
-41
-53
-53
-41
-47
-51
-45
-43
-53
-39
-48
-55
-43
-48
-51
-53
-57
-59
-51
-57
-57
-45
-51
-51
-49
-61
-59
-53
-55
-55
-49
-63
-69
-55
-55
-61
-53
-53
-63
-61
-71
-65
-57
-57
-63
-55
-63
-73
-67
-65
-79
-69
-65
-73
-63
-61
-69
-73
-75
-79
-69
-69
-79
-75
-73
-83
-69
-67
-79
-65
-75
-81
-67
-77
-75
-69
-77
-80
-63
-55
-57
-39
-41
-43
-19
-15
-3
25
43
43
57
51
37
25
-1
-25
-31
-49
-65
-71
-87
-113
-101
-107
-115
-101
-114
-123
-111
-105
-129
-123
-117
-123
-121
-119
-109
-105
-111
-111
-93
-89
-80
-41
-19
-1
45
117
245
379
327
123
-71
-223
-315
-363
-355
-303
-210
-155
-131
-107
-117
-129
-121
-121
-125
-117
-129
-127
-117
-129
-129
-123
-125
-133
-131
-135
-137
-121
-115
-125
-115
-117
-127
-114
-125
-125
-111
-109
-116
-105
-109
-111
-93
-89
-90
-87
-83
-89
-75
-77
-67
-47
-48
-47
-23
-19
-7
9
19
29
53
59
81
107
115
113
131
137
145
165
167
173
185
181
181
173
151
137
137
105
77
71
43
29
7
-13
-35
-43
-61
-73
-83
-96
-97
-95
-107
-113
-99
-121
-117
-112
-117
-133
-121
-131
-129
-125
-131
-135
-129
-140
-143
-129
-133
-139
-129
-137
-141
-135
-138
-142
-143
-145
-143
-133
-137
-137
-129
-143
-149
-131
-137
-141
-139
-141
-141
-133
-139
-137
-127
-137
-133
-131
-135
-130
-131
-139
-149
-139
-135
-141
-131
-138
-141
-129
-141
-141
-141
-141
-151
-137
-140
-149
-137
-143
-137
-129
-139
-147
-129
-137
-153
-142
-141
-139
-131
-137
-144
-137
-135
-139
-138
-141
-147
-137
-139
-143
-129
-137
-145
-137
-129
-131
-143
-133
-143
-145
-135
-141
-141
-129
-137
-133
-129
-133
-141
-137
-133
-131
-130
-131
-135
-123
-115
-115
-95
-103
-94
-85
-80
-59
-31
-9
3
17
3
-3
-9
-39
-61
-73
-93
-105
-107
-125
-139
-133
-140
-145
-133
-133
-139
-139
-149
-145
-133
-143
-139
-129
-135
-137
-121
-121
-118
-111
-103
-71
-53
-31
29
129
283
403
341
133
-81
-254
-351
-393
-368
-279
-195
-138
-119
-111
-108
-119
-107
-119
-127
-117
-125
-119
-109
-117
-123
-109
-111
-115
-105
-118
-119
-111
-112
-111
-105
-105
-115
-103
-95
-95
-89
-85
-93
-81
-77
-71
-61
-67
-69
-57
-55
-51
-41
-31
-23
-5
-9
1
21
27
33
59
67
77
97
113
127
151
151
167
189
187
197
219
217
219
229
221
215
212
201
181
173
147
125
109
85
73
69
49
27
21
1
-11
-3
-21
-33
-35
-43
-41
-31
-35
-43
-39
-45
-45
-37
-39
-45
-37
-45
-47
-37
-47
-47
-37
-43
-41
-37
-41
-44
-35
-41
-41
-31
-29
-41
-38
-39
-31
-21
-25
-35
-27
-31
-39
-29
-35
-41
-31
-39
-37
-29
-33
-39
-31
-37
-41
-29
-29
-37
-31
-29
-25
-19
-27
-29
-23
-21
-33
-13
-19
-25
-23
-27
-25
-17
-27
-25
-15
-19
-25
-7
-15
-25
-11
-23
-21
-11
-15
-23
-15
-25
-19
-5
-17
-19
-5
-11
-23
-15
-19
-23
-6
-11
-19
-7
-1
-11
-7
-7
-17
-3
-7
-11
-1
-15
-17
-3
-7
-13
-3
-17
-11
-1
-7
-9
5
-11
-3
3
3
1
11
7
1
17
16
31
39
49
55
67
69
81
95
121
139
151
149
129
113
97
85
69
45
37
13
9
-5
-9
-7
-13
-25
-21
-25
-15
-16
-21
-15
-15
-13
-15
-11
-5
-3
1
-7
-7
-3
33
59
77
113
183
315
505
649
570
354
133
-53
-177
-238
-198
-123
-71
-23
-3
-3
-11
-15
-11
-15
-21
-15
-15
-25
-21
-19
-21
-15
-23
-19
-23
-21
-21
-9
-15
-15
-17
-11
-9
-9
-11
-5
-5
-5
-1
-1
1
5
11
13
23
23
27
29
41
51
59
65
77
87
99
109
129
139
157
165
185
205
209
233
235
249
255
265
287
285
295
305
301
295
293
275
253
247
229
199
185
167
141
133
105
87
83
75
67
59
41
35
33
33
17
23
11
3
11
11
5
13
5
-1
13
-1
3
7
-3
-7
5
-9
-7
-1
-5
-7
-7
-3
-13
-5
-11
-15
1
-1
-16
-9
-11
-21
-1
-9
-15
-9
-11
-11
-3
3
-3
-1
-7
-7
9
-3
-3
-3
-11
-15
-7
-9
-9
-9
-15
-13
-3
-3
-3
-3
-13
-19
-15
-21
-19
-15
-17
-25
-15
-9
-12
-7
-19
-15
-7
-11
-13
-7
-9
-17
-9
-11
-17
-7
-23
-19
-13
-13
-17
-13
-19
-23
-19
-21
-23
-7
-17
-19
-13
-12
-21
-9
-9
-19
-11
-3
-11
-3
-11
-17
-11
-13
-15
-1
-13
-17
-13
-13
-15
-9
-15
-19
-9
-11
-1
11
13
19
35
35
37
53
61
77
111
129
131
133
113
87
73
45
29
23
-7
-23
-33
-39
-55
-45
-51
-67
-57
-65
-65
-57
-59
-65
-53
-63
-69
-53
-63
-59
-47
-51
-51
-31
-9
3
39
61
117
229
379
503
414
179
-41
-194
-295
-339
-283
-194
-131
-85
-77
-80
-73
-79
-83
-75
-69
-81
-71
-73
-75
-69
-71
-79
-73
-73
-79
-69
-67
-69
-61
-71
-75
-61
-71
-79
-67
-77
-67
-61
-59
-59
-51
-59
-59
-45
-45
-47
-35
-35
-31
-19
-17
-1
1
9
17
37
59
59
75
87
99
113
125
139
165
167
185
201
209
209
237
233
225
223
217
201
193
169
141
133
105
80
71
53
19
27
11
-9
-13
-35
-41
-35
-45
-55
-53
-61
-69
-65
-63
-67
-71
-71
-79
-59
-69
-75
-69
-81
-85
-75
-79
-81
-81
-87
-91
-79
-85
-85
-77
-77
-87
-79
-80
-85
-73
-79
-89
-69
-73
-79
-79
-77
-79
-77
-79
-83
-77
-77
-79
-67
-77
-83
-77
-79
-77
-73
-75
-83
-75
-87
-97
-93
-81
-85
-73
-77
-83
-75
-80
-85
-77
-85
-91
-79
-85
-83
-67
-75
-77
-69
-80
-83
-69
-73
-73
-75
-75
-73
-75
-75
-61
-71
-69
-63
-69
-67
-51
-63
-73
-63
-69
-75
-69
-73
-69
-69
-77
-71
-61
-55
-63
-57
-63
-77
-61
-63
-65
-59
-63
-63
-48
-45
-35
-19
-23
-25
-1
3
35
65
87
93
91
65
51
41
25
-3
-15
-35
-47
-45
-51
-79
-75
-83
-77
-67
-79
-83
-77
-73
-71
-69
-77
-79
-79
-65
-63
-57
-53
-57
-39
-31
-7
17
43
109
247
407
456
308
83
-113
-234
-307
-319
-263
-191
-121
-83
-63
-63
-51
-57
-63
-61
-67
-69
-63
-67
-69
-59
-60
-63
-61
-61
-69
-53
-55
-57
-49
-55
-55
-49
-53
-59
-43
-47
-55
-23
-35
-27
-15
-16
-23
-21
-13
-5
5
9
3
19
25
37
43
57
75
83
97
105
125
137
151
167
173
191
215
229
235
251
257
257
273
271
275
281
261
243
241
229
200
185
161
141
133
117
85
75
65
51
51
39
39
25
23
7
16
9
5
11
5
3
7
7
3
11
7
-1
7
9
-3
7
13
-1
9
13
13
19
17
11
17
16
23
25
13
11
25
21
21
27
27
17
23
23
29
33
33
23
27
29
29
27
21
17
37
31
29
43
27
27
35
23
29
39
37
29
43
35
29
35
37
25
33
27
31
49
39
41
33
27
37
49
43
37
45
41
47
51
53
43
49
49
39
57
51
43
49
45
45
53
57
53
49
53
45
53
53
53
61
49
51
63
55
55
55
51
51
59
53
49
57
51
49
53
55
55
61
59
65
81
81
81
101
104
111
129
141
155
185
201
213
217
199
169
153
133
121
117
91
77
67
55
43
49
47
39
49
37
33
37
37
35
43
33
33
53
49
45
57
53
51
69
101
125
155
191
267
397
582
695
593
369
147
-27
-149
-193
-137
-61
-3
37
61
53
61
49
49
43
51
39
43
37
33
47
39
41
45
37
33
45
39
43
45
39
35
41
45
41
47
39
37
47
45
51
65
57
55
65
71
69
85
89
87
103
107
113
125
143
141
161
161
175
200
213
221
248
263
269
283
295
308
315
325
330
345
347
341
348
339
329
315
297
273
265
245
217
211
196
169
155
141
133
121
109
101
105
99
77
81
77
61
70
61
55
61
55
45
55
49
39
51
45
35
45
37
37
51
43
33
37
37
35
39
33
29
41
33
41
51
45
33
37
33
31
35
37
25
35
29
27
41
37
27
35
29
33
43
33
33
31
21
35
37
37
47
37
31
49
37
23
35
33
29
37
35
35
39
29
25
37
31
37
33
25
23
39
35
33
35
29
27
33
29
25
31
19
13
29
29
25
29
23
23
31
33
19
29
21
17
29
25
21
21
17
23
29
27
21
25
25
21
39
31
27
39
29
25
27
25
23
29
29
21
29
25
29
31
29
37
55
53
65
73
81
89
107
119
143
165
165
155
149
133
115
109
85
61
53
29
23
29
7
-1
1
-5
-7
1
-1
-3
-1
-11
-9
-1
-7
-7
1
-3
3
13
7
3
39
59
77
113
163
269
429
596
577
397
165
-33
-160
-246
-223
-137
-81
-43
-19
-25
-25
-15
-29
-37
-29
-35
-31
-27
-23
-29
-21
-21
-21
-13
-19
-25
-19
-31
-33
-21
-27
-27
-27
-31
-25
-23
-31
-27
-25
-25
-19
-15
-9
-11
-5
-9
-1
9
7
7
19
29
37
57
59
65
79
85
93
127
131
147
163
173
195
219
229
227
237
251
261
265
269
259
264
249
229
225
197
173
151
123
115
105
83
49
33
13
-3
3
-7
-19
-21
-31
-31
-29
-43
-47
-47
-55
-55
-49
-51
-59
-61
-69
-67
-57
-65
-71
-61
-76
-79
-67
-71
-75
-71
-75
-73
-61
-69
-67
-63
-75
-75
-61
-67
-66
-67
-77
-79
-67
-71
-69
-59
-69
-67
-65
-67
-67
-67
-73
-79
-69
-73
-85
-71
-77
-77
-73
-79
-77
-75
-77
-79
-63
-77
-83
-77
-77
-81
-81
-79
-87
-77
-85
-85
-79
-77
-87
-79
-83
-79
-77
-79
-83
-71
-85
-89
-65
-80
-93
-83
-79
-75
-73
-78
-92
-83
-85
-81
-81
-85
-85
-79
-79
-91
-79
-89
-89
-79
-89
-93
-85
-87
-79
-79
-89
-91
-77
-83
-81
-83
-87
-79
-59
-49
-47
-33
-37
-29
5
27
45
55
51
29
7
-7
-31
-35
-61
-81
-89
-95
-109
-107
-121
-127
-121
-123
-138
-129
-131
-139
-139
-137
-133
-129
-133
-129
-125
-129
-121
-121
-121
-109
-77
-61
-41
17
112
241
365
289
83
-107
-246
-337
-376
-353
-289
-212
-163
-143
-133
-142
-133
-129
-131
-141
-143
-149
-147
-141
-142
-137
-135
-141
-139
-141
-141
-139
-131
-137
-129
-131
-139
-143
-137
-149
-143
-131
-125
-137
-123
-115
-112
-109
-113
-115
-93
-95
-94
-89
-95
-85
-67
-69
-51
-31
-27
-17
-1
-3
21
41
51
67
75
85
99
117
127
121
143
153
155
157
153
149
143
125
113
97
69
49
35
9
1
-3
-27
-49
-57
-67
-79
-87
-89
-99
-105
-109
-119
-111
-111
-115
-111
-117
-109
-114
-111
-112
-117
-117
-107
-107
-110
-103
-105
-107
-101
-107
-107
-91
-101
-111
-99
-96
-105
-87
-91
-91
-85
-93
-95
-87
-91
-99
-89
-95
-95
-87
-95
-101
-91
-89
-95
-77
-87
-87
-85
-92
-95
-79
-89
-95
-79
-83
-95
-89
-87
-95
-83
-85
-77
-77
-77
-89
-81
-75
-79
-79
-79
-85
-71
-77
-80
-71
-69
-79
-71
-71
-71
-63
-67
-79
-71
-73
-69
-67
-75
-75
-67
-73
-73
-63
-69
-77
-65
-73
-77
-61
-59
-61
-63
-65
-73
-57
-57
-67
-65
-67
-63
-55
-53
-61
-63
-55
-63
-61
-59
-59
-47
-45
-43
-27
-21
-23
-5
-1
11
39
57
71
87
71
53
49
19
9
-1
-25
-37
-39
-55
-67
-69
-79
-83
-73
-79
-81
-77
-81
-87
-69
-65
-73
-63
-67
-67
-52
-55
-57
-43
-45
-13
17
37
65
133
249
407
517
413
199
-13
-171
-272
-300
-251
-175
-109
-71
-61
-49
-55
-59
-49
-51
-61
-53
-47
-48
-47
-53
-47
-35
-43
-51
-51
-39
-55
-41
-43
-43
-39
-45
-47
-29
-33
-33
-25
-31
-35
-21
-19
-17
-1
-5
-9
-1
5
5
21
21
29
39
45
53
75
83
85
105
121
129
157
165
177
204
209
224
239
243
241
263
265
267
275
273
263
260
245
233
221
193
169
157
135
119
121
99
83
77
65
45
49
37
23
29
21
21
23
11
5
9
7
1
3
1
1
9
-1
-5
7
-3
-3
7
-1
-9
5
1
-7
-3
-1
-1
13
-3
-3
7
-3
1
11
9
9
11
15
11
23
13
5
7
1
5
11
9
3
9
7
21
17
13
9
5
7
7
17
17
9
11
11
9
11
13
13
15
13
9
17
21
19
13
7
17
17
13
21
19
9
23
15
17
21
25
25
21
25
23
13
19
21
21
29
21
25
23
21
17
29
29
33
21
25
23
15
21
25
29
21
19
23
29
23
17
21
21
19
26
25
17
11
11
13
21
25
21
21
29
33
49
57
65
61
69
79
89
97
119
145
159
165
169
161
137
117
101
87
69
49
41
25
13
5
3
5
1
-3
-1
-1
5
5
5
5
5
1
1
13
17
15
19
19
29
57
81
93
125
196
303
479
633
576
370
153
-15
-157
-220
-181
-111
-51
-15
9
13
5
5
-5
-1
-3
1
1
-7
-15
-1
-5
-7
-3
-3
-5
-9
-11
-3
-15
-13
-5
-11
-17
-5
-5
-11
-1
-7
-7
3
11
5
17
23
13
33
35
39
49
49
53
71
79
85
101
105
125
141
153
173
185
194
223
233
243
259
261
273
287
293
293
309
303
301
301
293
271
261
239
219
207
185
163
157
129
117
115
93
81
65
55
41
51
39
27
33
35
19
29
21
9
17
17
13
11
5
5
5
3
-7
1
-5
-15
-7
-19
-17
-9
-15
-16
-9
-19
-23
-11
-15
-17
-11
-9
-27
-13
-19
-11
-11
-15
-29
-23
-29
-23
-19
-25
-29
-25
-23
-27
-29
-39
-43
-29
-31
-41
-37
-31
-39
-35
-35
-35
-23
-37
-43
-35
-45
-47
-37
-43
-41
-35
-37
-45
-47
-41
-51
-45
-42
-47
-37
-47
-59
-49
-48
-59
-48
-57
-55
-49
-53
-57
-48
-55
-63
-63
-65
-59
-57
-69
-70
-59
-67
-63
-57
-59
-65
-59
-61
-66
-63
-73
-74
-63
-74
-79
-73
-77
-79
-67
-77
-69
-61
-65
-69
-63
-63
-65
-47
-41
-41
-33
-37
-31
-15
3
17
47
65
77
77
63
33
21
-1
-23
-35
-53
-73
-80
-89
-95
-91
-99
-108
-107
-111
-107
-105
-117
-121
-117
-115
-121
-109
-109
-109
-105
-109
-103
-93
-77
-55
-25
-7
43
131
273
375
313
105
-94
-234
-324
-372
-339
-271
-195
-143
-123
-129
-118
-125
-129
-121
-121
-133
-125
-129
-129
-129
-133
-133
-129
-137
-133
-121
-121
-135
-127
-117
-121
-109
-121
-109
-111
-119
-107
-115
-103
-93
-101
-99
-91
-79
-79
-67
-75
-67
-48
-59
-49
-41
-31
-27
-11
1
11
31
41
53
73
95
103
117
121
123
147
149
165
181
187
183
187
181
169
169
145
125
115
89
75
61
41
21
-3
-19
-37
-45
-57
-73
-63
-81
-93
-87
-93
-105
-109
-107
-119
-117
-117
-117
-111
-127
-129
-117
-117
-135
-121
-131
-129
-127
-129
-133
-123
-129
-133
-125
-133
-137
-123
-117
-129
-117
-123
-129
-123
-127
-123
-117
-121
-123
-117
-124
-123
-117
-119
-121
-121
-125
-131
-125
-127
-139
-131
-135
-141
-141
-139
-137
-127
-133
-138
-121
-133
-133
-129
-137
-138
-131
-141
-137
-125
-143
-143
-139
-135
-143
-133
-139
-137
-133
-133
-137
-129
-135
-137
-131
-131
-134
-129
-137
-133
-125
-134
-129
-125
-127
-125
-117
-117
-124
-123
-121
-121
-115
-121
-125
-115
-117
-119
-107
-105
-112
-103
-112
-114
-109
-107
-111
-95
-97
-101
-83
-73
-73
-57
-55
-39
-13
9
31
49
39
19
13
-11
-27
-45
-59
-85
-85
-101
-111
-115
-123
-137
-121
-129
-129
-123
-133
-133
-123
-124
-123
-123
-115
-124
-105
-111
-115
-96
-91
-61
-39
-15
19
89
205
365
464
337
117
-78
-230
-337
-351
-311
-230
-161
-115
-103
-97
-105
-107
-101
-106
-113
-99
-99
-99
-99
-91
-83
-85
-87
-75
-81
-89
-73
-77
-83
-75
-73
-79
-65
-75
-75
-59
-66
-71
-53
-48
-51
-45
-43
-43
-31
-29
-19
-15
-1
-9
7
11
17
43
45
57
65
75
85
121
123
127
157
168
187
201
197
207
221
229
237
249
245
233
237
220
201
197
180
159
139
119
99
85
69
49
45
33
9
19
-1
-19
-13
-21
-27
-17
-27
-39
-31
-37
-37
-31
-39
-45
-41
-41
-47
-37
-39
-43
-41
-45
-41
-37
-43
-43
-37
-41
-37
-33
-35
-37
-37
-35
-43
-29
-31
-35
-27
-37
-45
-33
-33
-39
-35
-35
-37
-27
-29
-37
-37
-37
-39
-31
-39
-45
-39
-37
-51
-37
-37
-43
-45
-47
-41
-41
-41
-51
-37
-41
-41
-33
-33
-39
-37
-41
-45
-35
-41
-41
-35
-35
-43
-25
-37
-43
-35
-45
-47
-33
-31
-41
-33
-39
-39
-31
-35
-47
-33
-39
-37
-31
-35
-45
-27
-41
-39
-25
-31
-31
-29
-35
-31
-25
-31
-35
-31
-31
-43
-37
-31
-35
-23
-31
-37
-27
-26
-33
-21
-21
-20
-3
-3
-1
17
21
23
55
68
91
111
107
105
99
73
51
45
23
-3
-7
-19
-39
-49
-57
-67
-47
-63
-75
-67
-73
-75
-67
-63
-69
-65
-61
-63
-47
-48
-59
-47
-55
-47
3
23
49
87
153
271
452
577
497
285
45
-109
-233
-274
-222
-149
-103
-61
-35
-41
-41
-43
-55
-48
-51
-55
-47
-55
-57
-51
-53
-61
-41
-55
-53
-45
-51
-55
-47
-53
-57
-49
-51
-53
-47
-47
-42
-45
-51
-41
-29
-35
-37
-27
-21
-19
-15
-15
-13
-1
5
13
31
33
49
59
73
85
105
115
129
145
159
160
189
197
207
229
229
237
249
245
241
247
235
217
213
203
173
155
127
115
101
83
69
57
35
13
21
3
-9
-9
-25
-31
-23
-31
-37
-25
-29
-45
-41
-47
-51
-45
-58
-63
-47
-49
-55
-51
-57
-67
-59
-71
-70
-67
-69
-73
-73
-75
-80
-73
-77
-85
-77
-81
-89
-77
-97
-99
-89
-81
-93
-89
-97
-95
-91
-96
-95
-97
-105
-99
-95
-101
-99
-87
-97
-105
-89
-93
-93
-89
-101
-101
-93
-105
-114
-102
-105
-111
-105
-115
-111
-105
-109
-116
-108
-105
-109
-98
-109
-111
-109
-111
-121
-107
-109
-112
-105
-107
-119
-113
-121
-125
-119
-125
-123
-115
-129
-131
-123
-125
-131
-126
-121
-127
-125
-133
-131
-121
-133
-133
-127
-129
-133
-125
-131
-129
-123
-122
-129
-121
-131
-133
-125
-113
-129
-105
-107
-117
-91
-83
-85
-75
-75
-65
-37
-11
9
25
11
1
-13
-29
-57
-59
-91
-109
-117
-123
-126
-133
-153
-155
-141
-145
-149
-144
-147
-153
-143
-147
-139
-137
-145
-144
-129
-127
-131
-119
-109
-103
-65
-48
-29
33
109
243
361
291
95
-98
-242
-345
-391
-367
-299
-209
-162
-145
-137
-135
-141
-137
-141
-147
-137
-143
-153
-141
-143
-153
-141
-137
-151
-141
-153
-149
-133
-143
-143
-121
-121
-137
-133
-133
-131
-119
-123
-130
-113
-115
-113
-105
-105
-105
-95
-95
-87
-81
-79
-69
-59
-55
-37
-21
-15
-5
17
23
29
51
53
61
87
99
105
133
141
152
163
163
165
177
181
171
163
149
129
115
85
65
55
33
13
-5
-15
-33
-35
-57
-73
-75
-87
-99
-85
-105
-107
-98
-105
-111
-113
-121
-123
-109
-115
-124
-119
-123
-129
-117
-121
-125
-114
-121
-131
-123
-131
-129
-115
-119
-129
-121
-115
-115
-105
-107
-121
-113
-113
-115
-107
-109
-117
-107
-111
-111
-111
-115
-123
-107
-111
-115
-109
-121
-129
-117
-121
-123
-109
-115
-121
-117
-117
-119
-103
-111
-111
-105
-109
-107
-103
-105
-115
-103
-109
-103
-105
-102
-111
-95
-105
-105
-99
-105
-99
-103
-103
-107
-91
-97
-105
-95
-93
-97
-78
-79
-84
-83
-83
-83
-77
-83
-91
-85
-83
-87
-73
-71
-75
-73
-77
-74
-63
-77
-79
-69
-75
-69
-59
-57
-57
-35
-31
-27
-11
-11
-7
21
45
71
103
101
85
79
57
53
35
9
-7
-19
-41
-29
-53
-69
-53
-53
-61
-47
-57
-59
-53
-57
-63
-47
-51
-51
-43
-35
-39
-31
-25
-35
-5
23
41
67
105
179
321
469
499
364
149
-47
-170
-256
-273
-213
-129
-75
-33
-27
-31
-21
-27
-25
-19
-27
-29
-17
-21
-31
-21
-33
-31
-19
-15
-1
1
-5
-7
5
1
-1
5
9
5
17
9
13
29
27
21
31
25
29
43
45
43
61
69
67
81
87
90
109
117
129
147
155
165
189
197
213
231
241
249
267
281
281
301
301
309
325
325
328
341
321
313
299
285
265
257
233
213
201
171
157
149
137
111
107
97
81
89
73
65
73
69
65
73
63
53
57
57
51
57
53
39
49
49
49
59
53
37
49
49
55
53
59
53
61
61
59
67
59
59
69
65
55
65
69
55
69
65
63
67
65
61
69
65
61
65
63
57
67
73
67
71
67
65
65
61
49
69
63
57
61
53
59
69
64
59
65
61
51
61
67
61
65
65
59
71
65
55
61
57
55
73
65
55
59
57
57
69
63
55
61
61
51
61
61
57
67
61
61
69
65
55
61
59
55
69
65
59
65
61
57
69
65
55
61
63
65
69
67
73
71
69
81
93
93
113
113
121
129
137
153
173
193
207
227
223
216
201
173
149
139
119
109
93
80
61
53
49
49
45
39
41
45
41
39
53
41
47
51
48
43
53
55
51
69
73
97
125
151
169
245
365
519
686
639
427
205
23
-117
-166
-144
-69
1
45
53
64
59
53
53
55
49
49
41
43
53
47
47
53
53
43
55
49
49
49
49
45
49
41
47
61
55
45
57
53
59
73
59
63
77
65
71
83
91
89
103
110
121
131
131
144
155
157
165
183
189
201
217
236
248
267
277
281
297
303
313
333
333
329
327
331
325
319
297
281
261
239
221
213
191
171
159
139
127
115
109
99
81
73
63
71
65
51
45
43
45
49
45
48
41
37
25
35
31
21
23
21
25
29
27
19
21
21
19
21
21
21
27
23
15
17
21
23
23
15
17
17
15
5
17
17
5
11
7
5
7
5
5
5
1
-1
5
3
-1
7
3
-1
11
11
1
7
1
-3
5
-1
-3
5
1
-3
5
3
-2
-1
-1
-4
-1
-3
-5
1
3
-7
-5
-11
-5
-3
-1
-7
-3
-9
-15
-11
-13
-7
-9
-15
-21
-15
-11
-5
-13
-19
-5
-15
-7
-5
-9
-19
-7
-27
-23
-15
-15
-21
-11
-19
-23
-13
-15
-19
-15
-25
-29
-19
-27
-29
-15
-9
-9
1
5
5
23
27
37
51
69
85
107
105
97
99
69
41
35
9
-5
-19
-31
-41
-41
-57
-69
-73
-67
-77
-69
-73
-87
-79
-80
-83
-73
-85
-85
-65
-69
-74
-69
-69
-71
-41
-5
17
43
85
163
304
429
368
171
-47
-198
-291
-347
-323
-245
-165
-115
-91
-83
-89
-93
-103
-111
-95
-101
-105
-105
-105
-99
-95
-101
-109
-97
-89
-93
-91
-89
-93
-93
-95
-85
-85
-89
-95
-95
-105
-101
-91
-87
-83
-81
-73
-77
-71
-77
-71
-77
-65
-55
-51
-35
-29
-25
-15
-15
-3
27
39
35
59
73
87
103
123
129
147
153
157
173
179
177
180
173
173
165
147
127
115
91
67
59
37
17
-9
-21
-51
-51
-71
-77
-81
-89
-95
-91
-103
-113
-113
-113
-121
-111
-123
-131
-130
-133
-131
-129
-135
-135
-125
-142
-147
-139
-139
-137
-135
-137
-139
-139
-131
-129
-133
-135
-139
-143
-143
-146
-143
-146
-141
-139
-141
-147
-139
-142
-137
-149
-146
-144
-145
-144
-141
-145
-145
-143
-149
-155
-161
-160
-158
-149
-153
-143
-143
-149
-153
-151
-149
-149
-157
-163
-169
-161
-156
-147
-151
-157
-155
-154
-151
-150
-145
-149
-147
-155
-159
-151
-149
-153
-147
-149
-147
-142
-147
-156
-149
-149
-144
-153
-149
-156
-157
-148
-149
-153
-149
-165
-153
-143
-140
-139
-137
-144
-147
-145
-147
-142
-149
-151
-141
-141
-129
-119
-114
-107
-107
-100
-77
-57
-31
-11
-4
-11
-25
-35
-55
-75
-95
-113
-119
-129
-149
-149
-157
-159
-158
-165
-173
-177
-169
-171
-173
-169
-175
-169
-159
-163
-159
-141
-151
-153
-143
-127
-119
-81
-79
-57
17
133
283
347
202
-5
-181
-299
-377
-379
-343
-267
-193
-159
-147
-133
-143
-151
-145
-147
-143
-143
-143
-151
-139
-147
-147
-139
-143
-153
-141
-137
-149
-137
-141
-147
-143
-149
-149
-129
-129
-141
-125
-129
-131
-125
-123
-122
-109
-111
-105
-89
-89
-93
-83
-85
-71
-59
-51
-47
-33
-21
-23
-1
17
35
55
61
65
85
99
105
127
133
133
159
159
157
167
167
159
157
152
128
121
101
73
69
41
27
25
7
-19
-27
-32
-59
-55
-63
-67
-63
-75
-81
-75
-81
-85
-85
-83
-91
-81
-83
-87
-79
-81
-87
-77
-83
-89
-77
-85
-87
-75
-81
-79
-77
-75
-75
-63
-73
-85
-71
-77
-79
-71
-73
-79
-73
-75
-73
-75
-87
-83
-71
-75
-77
-71
-83
-77
-67
-73
-73
-75
-79
-85
-75
-75
-75
-59
-65
-77
-66
-65
-79
-73
-71
-63
-68
-73
-61
-57
-67
-51
-59
-67
-63
-65
-73
-57
-55
-53
-51
-51
-51
-41
-53
-53
-39
-45
-47
-41
-45
-47
-45
-45
-48
-45
-45
-49
-39
-41
-41
-27
-41
-47
-39
-29
-31
-25
-31
-39
-29
-25
-31
-23
-31
-35
-31
-23
-28
-15
-21
-25
-17
-13
-5
5
19
23
37
39
45
55
77
105
131
125
107
109
80
57
55
33
7
3
-13
-19
-7
-27
-23
-35
-35
-39
-31
-41
-41
-39
-41
-53
-34
-33
-31
-21
-21
-31
-15
-20
-1
27
43
63
115
201
333
533
599
449
249
55
-109
-215
-249
-191
-105
-59
-27
-19
-21
-21
-21
-27
-31
-23
-21
-31
-25
-29
-31
-27
-31
-33
-25
-27
-33
-29
-33
-37
-31
-25
-31
-21
-19
-25
-9
-11
-15
-11
-11
-11
-1
11
7
13
13
19
27
31
35
49
57
63
79
91
101
113
129
130
151
171
177
205
213
221
241
253
256
266
267
269
285
283
273
269
261
252
245
227
197
189
167
141
125
117
91
89
75
65
61
39
33
45
33
25
31
25
17
25
16
11
13
7
9
11
3
-5
5
-3
-3
-1
-1
-7
-5
-5
-7
-3
-3
-7
-3
-7
-9
-3
-7
-7
5
-9
-13
-1
-7
-9
-3
-9
-9
-3
-7
-7
-11
-9
-1
-7
-9
-3
-3
-11
5
-3
-9
-1
-7
-11
-3
-9
-5
-1
-5
-5
-1
-1
-1
5
-1
-5
3
3
-5
5
-1
-5
-1
-1
-1
1
-3
-1
5
3
-1
5
5
-5
5
3
-1
7
-3
-11
1
-5
-15
-3
-7
-13
1
-9
-9
3
-5
-7
7
1
-1
1
-1
-11
3
-7
-1
7
1
-7
3
-1
-3
5
-1
1
17
19
21
37
49
55
61
65
81
107
125
137
149
143
131
113
93
65
59
43
25
21
7
-9
-11
-21
-9
-15
-27
-33
-25
-27
-25
-19
-25
-33
-25
-21
-25
-27
-21
-21
-19
-17
13
43
63
87
153
261
417
548
457
233
35
-125
-233
-272
-235
-161
-101
-65
-53
-47
-57
-65
-57
-67
-67
-69
-79
-73
-69
-67
-63
-45
-57
-61
-57
-63
-59
-53
-51
-61
-55
-69
-59
-47
-51
-59
-55
-53
-47
-43
-51
-45
-35
-35
-33
-23
-21
-21
-15
-17
-9
9
9
21
39
47
53
73
81
91
107
110
133
157
159
159
189
197
213
217
217
219
221
225
213
220
193
181
173
145
117
109
83
71
53
31
3
-5
-23
-35
-35
-48
-57
-51
-57
-69
-65
-77
-80
-69
-69
-75
-79
-83
-91
-79
-87
-93
-91
-93
-93
-85
-95
-101
-93
-103
-101
-80
-91
-111
-93
-91
-99
-87
-89
-93
-95
-95
-101
-93
-87
-91
-79
-89
-105
-94
-95
-96
-95
-95
-101
-87
-83
-95
-92
-95
-97
-93
-99
-100
-89
-99
-105
-91
-93
-95
-93
-103
-101
-93
-99
-107
-105
-109
-109
-95
-95
-89
-89
-103
-109
-101
-101
-105
-111
-114
-105
-99
-105
-107
-109
-111
-107
-105
-105
-102
-105
-117
-119
-111
-113
-115
-107
-109
-109
-103
-101
-103
-97
-105
-117
-109
-107
-112
-105
-111
-117
-105
-105
-97
-93
-91
-89
-75
-73
-69
-55
-43
-23
1
17
31
27
9
-5
-19
-37
-69
-80
-101
-113
-109
-121
-131
-133
-141
-157
-157
-154
-159
-145
-147
-150
-147
-157
-159
-149
-163
-167
-149
-149
-157
-139
-129
-109
-89
-67
-15
105
259
333
237
31
-159
-282
-372
-406
-365
-301
-222
-169
-160
-153
-151
-157
-171
-163
-171
-176
-169
-174
-169
-163
-173
-180
-169
-173
-176
-169
-169
-176
-163
-160
-167
-157
-165
-159
-156
-167
-165
-154
-153
-151
-129
-131
-131
-123
-117
-119
-119
-116
-111
-91
-93
-89
-71
-69
-59
-49
-33
-19
-7
7
17
39
49
59
77
85
93
115
129
129
137
135
143
149
141
125
121
109
89
73
49
21
19
-5
-15
-41
-59
-73
-69
-84
-94
-89
-105
-109
-105
-109
-115
-109
-123
-123
-109
-125
-121
-127
-119
-112
-107
-109
-103
-107
-107
-99
-105
-103
-91
-95
-97
-87
-93
-105
-91
-87
-87
-85
-87
-93
-79
-87
-85
-85
-85
-89
-87
-85
-81
-79
-81
-89
-77
-85
-91
-83
-85
-91
-75
-87
-95
-89
-83
-93
-81
-83
-85
-73
-79
-83
-73
-77
-77
-71
-73
-79
-69
-67
-75
-61
-61
-69
-59
-63
-67
-59
-61
-75
-61
-69
-65
-59
-53
-63
-55
-57
-63
-53
-59
-63
-55
-57
-55
-39
-43
-51
-47
-47
-57
-43
-47
-48
-43
-55
-57
-41
-47
-47
-43
-45
-53
-48
-45
-47
-35
-39
-37
-27
-25
-29
-11
-5
-1
13
11
29
61
85
93
113
109
93
85
53
31
33
13
-7
-17
-29
-36
-41
-45
-55
-51
-55
-57
-49
-49
-53
-43
-51
-55
-35
-39
-43
-37
-35
-35
-25
-19
-1
35
53
81
159
281
444
569
487
269
67
-105
-230
-273
-233
-153
-73
-41
-19
-21
-31
-35
-27
-31
-33
-25
-21
-21
-13
-16
-23
-9
-16
-23
-13
-5
-13
-13
-19
-31
-15
-7
-11
-11
-9
-15
-9
-11
-7
-1
-3
-3
13
21
13
23
23
25
37
48
50
59
61
67
95
105
117
133
143
153
183
191
201
217
227
233
257
261
269
289
295
289
299
293
292
293
275
253
247
225
209
191
169
149
137
119
105
105
89
77
77
71
61
69
55
51
43
35
31
35
29
27
33
19
15
25
27
19
33
37
29
25
21
9
25
21
13
25
23
23
27
27
21
29
19
19
23
19
19
27
9
13
23
21
9
17
13
11
21
15
17
23
19
11
17
21
16
29
21
13
19
17
17
27
17
7
17
16
13
21
15
5
17
9
11
19
17
11
19
17
9
23
13
5
19
13
5
19
19
19
21
13
7
25
21
9
17
11
7
17
17
11
17
17
5
9
7
3
17
13
7
17
17
5
17
23
13
21
16
3
17
9
9
21
11
3
11
7
1
17
13
21
27
33
33
53
57
59
81
101
121
141
137
131
133
109
91
85
59
35
19
7
3
5
-3
-19
-11
-25
-23
-19
-23
-27
-19
-25
-29
-19
-23
-29
-13
-14
-21
-5
-11
-11
21
45
65
101
165
279
451
595
547
363
137
-43
-167
-237
-221
-132
-75
-51
-25
-15
-21
-25
-27
-31
-21
-37
-37
-31
-27
-37
-37
-37
-39
-23
-33
-39
-32
-29
-35
-25
-31
-35
-31
-41
-45
-29
-25
-27
-23
-16
-31
-13
-15
-23
-9
-9
-3
9
19
23
39
39
37
63
69
73
99
103
107
129
143
169
181
183
203
213
225
249
249
256
259
257
256
261
253
245
244
221
197
189
161
141
129
105
89
85
65
49
27
17
9
9
-11
-16
-23
-25
-33
-25
-31
-47
-41
-41
-53
-41
-48
-61
-47
-48
-55
-55
-61
-67
-67
-75
-73
-63
-67
-75
-67
-75
-71
-63
-73
-85
-73
-79
-77
-71
-71
-85
-79
-83
-79
-71
-79
-85
-83
-85
-83
-77
-77
-85
-79
-85
-85
-77
-89
-91
-91
-93
-105
-95
-89
-89
-85
-91
-97
-89
-93
-97
-93
-97
-97
-85
-95
-95
-89
-98
-107
-95
-101
-105
-103
-101
-99
-93
-95
-101
-99
-105
-101
-97
-95
-107
-105
-113
-125
-109
-101
-113
-105
-113
-109
-107
-105
-113
-119
-125
-125
-111
-123
-123
-115
-119
-129
-119
-112
-121
-117
-113
-112
-107
-109
-111
-97
-91
-87
-73
-77
-67
-43
-21
-11
17
17
9
-1
-19
-37
-45
-69
-93
-107
-115
-132
-129
-143
-149
-141
-147
-165
-153
-160
-158
-165
-169
-169
-155
-163
-169
-163
-155
-163
-149
-149
-143
-127
-95
-93
-63
-15
69
223
319
230
53
-127
-268
-360
-415
-399
-320
-247
-205
-171
-181
-189
-179
-173
-179
-173
-181
-196
-185
-191
-191
-183
-181
-195
-179
-179
-185
-183
-179
-196
-189
-187
-189
-179
-187
-191
-179
-170
-170
-159
-160
-169
-155
-151
-153
-139
-145
-139
-127
-112
-119
-113
-107
-99
-77
-75
-65
-55
-55
-55
-31
-13
7
27
27
37
53
65
77
93
91
99
103
97
99
103
83
73
61
49
25
5
-11
-29
-29
-49
-63
-89
-105
-121
-127
-133
-130
-137
-153
-161
-159
-169
-173
-161
-163
-177
-169
-175
-173
-169
-171
-177
-165
-165
-177
-170
-173
-175
-177
-173
-169
-159
-169
-173
-165
-165
-175
-173
-165
-169
-159
-170
-171
-155
-169
-175
-160
-161
-165
-159
-169
-171
-166
-169
-174
-159
-164
-169
-159
-165
-175
-160
-161
-169
-171
-173
-169
-157
-165
-173
-165
-169
-173
-159
-158
-159
-169
-165
-169
-155
-159
-165
-163
-169
-177
-165
-163
-159
-157
-161
-163
-157
-155
-165
-158
-169
-174
-165
-173
-163
-153
-157
-167
-153
-151
-163
-154
-163
-163
-149
-147
-153
-147
-147
-143
-135
-139
-141
-135
-141
-135
-135
-137
-129
-131
-129
-125
-117
-101
-89
-89
-79
-69
-51
-23
-1
5
3
-1
-21
-27
-45
-73
-77
-101
-113
-111
-129
-139
-133
-139
-149
-143
-145
-145
-138
-143
-141
-131
-135
-137
-131
-133
-129
-117
-123
-123
-107
-83
-67
-27
-1
59
181
345
453
373
173
-31
-185
-300
-351
-303
-225
-166
-129
-115
-109
-101
-115
-115
-109
-121
-117
-93
-97
-103
-105
-111
-109
-93
-95
-95
-95
-96
-99
-83
-89
-93
-89
-95
-89
-77
-79
-79
-73
-73
-71
-61
-59
-57
-51
-53
-45
-35
-33
-29
-19
-19
-7
3
9
19
31
37
49
69
77
95
113
117
131
155
163
171
187
193
201
205
212
217
209
206
201
197
177
159
139
125
97
87
73
57
39
27
13
11
-1
-5
-9
-23
-27
-37
-41
-35
-37
-47
-51
-51
-53
-47
-50
-55
-52
-53
-55
-53
-47
-49
-47
-59
-59
-55
-53
-61
-53
-55
-47
-43
-51
-47
-45
-41
-43
-43
-41
-47
-54
-47
-55
-45
-45
-41
-43
-43
-43
-41
-43
-45
-47
-49
-45
-41
-45
-45
-47
-51
-47
-47
-45
-47
-47
-48
-45
-39
-48
-47
-48
-49
-53
-53
-47
-47
-55
-59
-55
-57
-63
-55
-59
-59
-59
-57
-57
-57
-59
-53
-61
-53
-49
-59
-61
-63
-61
-47
-49
-63
-51
-53
-47
-41
-47
-51
-59
-51
-61
-51
-41
-49
-57
-53
-53
-53
-45
-48
-59
-47
-49
-47
-41
-45
-51
-47
-49
-51
-43
-51
-45
-41
-43
-29
-11
-19
-11
3
11
9
41
57
73
97
93
81
73
57
37
21
-1
-21
-19
-39
-55
-57
-69
-71
-59
-65
-83
-73
-77
-73
-69
-75
-73
-67
-71
-69
-59
-65
-63
-55
-49
-30
3
27
39
95
199
349
540
551
375
159
-31
-179
-253
-261
-195
-125
-73
-47
-39
-45
-39
-47
-53
-57
-55
-57
-45
-59
-61
-61
-59
-53
-45
-47
-57
-45
-47
-55
-45
-45
-53
-51
-51
-47
-41
-45
-47
-39
-41
-47
-39
-31
-29
-21
-19
-25
-9
-5
1
11
13
21
37
45
45
61
71
87
113
117
127
141
153
163
193
197
201
217
217
223
243
244
237
241
235
229
209
189
171
175
153
123
117
97
75
65
53
33
33
17
7
-1
-15
-27
-15
-21
-29
-23
-25
-39
-19
-25
-35
-25
-33
-43
-33
-33
-39
-37
-43
-45
-35
-43
-47
-33
-35
-43
-39
-43
-41
-45
-41
-47
-41
-47
-53
-41
-48
-51
-41
-47
-55
-45
-48
-63
-45
-39
-53
-51
-57
-65
-51
-53
-63
-57
-61
-71
-59
-59
-67
-51
-57
-59
-43
-43
-51
-49
-59
-57
-47
-51
-57
-51
-53
-63
-47
-59
-61
-59
-57
-65
-55
-51
-65
-55
-69
-69
-57
-57
-63
-59
-61
-77
-59
-69
-65
-57
-65
-67
-53
-67
-77
-65
-75
-79
-71
-67
-75
-65
-71
-77
-63
-71
-78
-77
-77
-79
-73
-83
-77
-69
-75
-89
-75
-75
-85
-71
-64
-75
-57
-51
-43
-31
-35
-31
-7
7
27
57
59
47
49
23
-1
-5
-25
-47
-57
-75
-89
-87
-98
-112
-109
-113
-127
-115
-115
-110
-105
-105
-113
-101
-109
-115
-105
-107
-106
-95
-111
-109
-79
-38
-13
15
51
121
253
391
385
225
-9
-195
-287
-344
-353
-281
-207
-157
-117
-113
-115
-107
-113
-125
-117
-127
-125
-117
-121
-117
-117
-121
-105
-105
-112
-119
-115
-111
-123
-111
-117
-119
-109
-113
-118
-101
-105
-107
-96
-109
-103
-93
-99
-96
-83
-91
-89
-75
-69
-73
-53
-43
-45
-23
-23
-21
-1
5
7
33
45
57
69
89
105
125
129
135
155
151
155
179
181
169
181
161
157
153
131
105
91
69
49
35
21
-3
-19
-35
-51
-45
-61
-71
-81
-97
-101
-89
-99
-105
-109
-119
-121
-113
-129
-129
-117
-119
-125
-119
-127
-131
-125
-137
-139
-121
-133
-135
-131
-137
-141
-127
-135
-137
-131
-137
-135
-125
-121
-129
-123
-129
-141
-137
-141
-137
-125
-133
-142
-133
-131
-143
-133
-133
-143
-135
-133
-135
-129
-135
-137
-123
-137
-147
-125
-131
-137
-131
-133
-139
-133
-151
-147
-137
-141
-147
-137
-147
-151
-137
-137
-151
-141
-145
-147
-139
-135
-142
-133
-147
-153
-141
-142
-149
-145
-153
-147
-135
-149
-149
-137
-143
-145
-137
-133
-142
-131
-147
-149
-137
-138
-143
-133
-139
-144
-137
-139
-141
-137
-137
-141
-133
-139
-139
-119
-117
-113
-95
-93
-93
-69
-61
-43
-11
13
21
17
-1
-19
-29
-47
-63
-79
-96
-119
-123
-125
-123
-135
-141
-131
-137
-143
-133
-133
-141
-133
-137
-139
-119
-125
-129
-109
-111
-113
-105
-99
-79
-51
-39
-5
57
156
309
395
263
55
-119
-246
-329
-343
-311
-249
-159
-125
-109
-101
-105
-117
-103
-105
-111
-97
-107
-109
-95
-105
-105
-95
-106
-109
-99
-107
-103
-96
-105
-107
-95
-99
-81
-77
-79
-89
-79
-73
-73
-63
-61
-63
-47
-51
-57
-45
-39
-41
-27
-19
-16
-1
3
11
25
43
49
67
81
87
109
123
125
149
153
159
177
197
195
214
217
217
221
229
219
225
203
189
177
159
137
135
109
85
77
61
45
33
16
5
1
-5
-11
-15
-23
-29
-25
-31
-37
-33
-37
-45
-37
-45
-48
-35
-41
-41
-37
-41
-43
-31
-25
-43
-33
-31
-37
-37
-29
-45
-27
-25
-29
-29
-23
-25
-23
-17
-27
-15
-21
-33
-27
-25
-23
-21
-25
-35
-25
-27
-31
-25
-21
-29
-31
-29
-23
-9
-15
-29
-15
-25
-27
-17
-25
-27
-21
-29
-31
-17
-23
-21
-23
-29
-25
-19
-19
-27
-25
-25
-33
-19
-23
-23
-25
-25
-27
-25
-21
-33
-31
-27
-33
-29
-29
-41
-29
-43
-35
-31
-31
-39
-27
-25
-29
-25
-25
-33
-27
-33
-31
-27
-33
-31
-29
-27
-27
-19
-23
-23
-15
-13
-19
-7
-3
-9
-9
-5
1
21
33
35
49
49
43
65
93
117
133
136
129
129
113
87
73
61
39
31
16
-1
-7
-15
-27
-13
-23
-25
-15
-27
-21
-19
-21
-21
-13
-19
-25
-11
-9
-19
-11
-16
-9
31
51
69
107
169
279
461
596
515
321
107
-63
-173
-233
-207
-125
-69
-39
-27
-9
-23
-19
-25
-27
-21
-19
-23
-27
-23
-31
-21
-23
-31
-19
-21
-27
-21
-19
-23
-15
-27
-33
-17
-17
-16
-15
-19
-21
-5
-11
-15
-1
-7
-1
13
11
13
29
21
27
39
49
49
69
77
85
99
115
123
145
155
161
181
195
201
219
227
231
245
253
259
273
263
261
255
245
231
219
205
181
165
149
129
117
93
83
69
53
25
31
13
5
3
-3
-9
-1
-15
-19
-15
-19
-29
-23
-25
-41
-29
-33
-35
-35
-37
-53
-37
-43
-49
-43
-51
-55
-47
-47
-48
-45
-51
-55
-39
-51
-55
-49
-51
-51
-51
-53
-51
-43
-49
-61
-47
-49
-59
-50
-47
-51
-51
-57
-67
-51
-57
-59
-57
-63
-61
-55
-55
-63
-57
-59
-61
-51
-47
-51
-53
-45
-57
-55
-53
-51
-53
-48
-59
-49
-47
-55
-47
-57
-51
-47
-47
-61
-59
-55
-65
-49
-51
-59
-55
-59
-63
-53
-53
-59
-55
-55
-63
-57
-63
-71
-57
-57
-63
-57
-53
-47
-55
-59
-51
-55
-57
-47
-59
-59
-55
-57
-55
-47
-53
-67
-47
-57
-65
-53
-55
-49
-41
-29
-27
-15
-15
-19
7
17
37
65
73
69
71
61
45
27
1
-13
-19
-45
-63
-67
-79
-89
-89
-85
-99
-91
-103
-102
-99
-109
-109
-101
-101
-111
-99
-101
-99
-93
-97
-105
-85
-65
-39
-7
11
61
171
317
445
413
201
-13
-175
-284
-345
-297
-225
-169
-121
-109
-117
-111
-117
-131
-121
-129
-123
-107
-113
-121
-113
-121
-111
-113
-117
-123
-111
-123
-117
-109
-109
-123
-117
-121
-117
-115
-123
-119
-111
-114
-113
-115
-111
-113
-101
-95
-91
-85
-81
-83
-69
-73
-65
-47
-43
-37
-33
-19
-11
13
17
33
47
57
69
89
107
121
133
131
139
155
157
159
165
155
141
133
105
85
75
53
23
16
-11
-25
-41
-61
-71
-73
-95
-101
-101
-111
-127
-121
-133
-141
-131
-141
-153
-145
-153
-153
-143
-150
-154
-141
-145
-151
-145
-163
-166
-161
-161
-171
-163
-170
-163
-157
-159
-167
-161
-163
-170
-165
-165
-172
-167
-173
-185
-171
-175
-181
-175
-177
-179
-160
-165
-169
-167
-171
-177
-161
-167
-171
-169
-169
-179
-158
-160
-169
-161
-165
-179
-179
-185
-187
-175
-173
-181
-174
-177
-181
-175
-174
-179
-169
-165
-171
-169
-177
-177
-165
-169
-169
-169
-169
-169
-161
-165
-165
-165
-173
-169
-159
-157
-169
-163
-169
-169
-160
-161
-151
-153
-171
-173
-161
-161
-167
-159
-163
-165
-161
-159
-157
-151
-154
-156
-146
-153
-145
-133
-131
-129
-121
-107
-93
-65
-43
-37
-27
-39
-55
-65
-93
-121
-133
-145
-169
-157
-173
-181
-179
-175
-179
-173
-187
-197
-185
-185
-189
-183
-187
-201
-181
-177
-179
-177
-183
-192
-173
-163
-137
-111
-101
-61
37
177
297
253
55
-143
-284
-379
-427
-399
-333
-251
-205
-193
-189
-177
-185
-183
-179
-181
-185
-185
-187
-195
-179
-181
-185
-182
-188
-191
-185
-187
-182
-177
-179
-185
-177
-181
-183
-175
-183
-185
-180
-169
-163
-153
-159
-163
-149
-149
-141
-129
-129
-131
-121
-115
-109
-91
-89
-79
-69
-57
-47
-27
-17
-3
13
19
35
59
71
77
91
97
105
125
119
125
125
115
107
105
91
63
55
35
21
11
-25
-31
-47
-65
-77
-75
-87
-97
-99
-111
-117
-109
-117
-121
-115
-121
-127
-117
-123
-129
-117
-121
-127
-115
-117
-123
-121
-121
-125
-101
-112
-117
-113
-103
-117
-99
-105
-109
-105
-107
-111
-99
-97
-101
-89
-103
-93
-95
-93
-105
-86
-96
-95
-93
-101
-93
-79
-85
-91
-79
-81
-83
-77
-89
-89
-77
-79
-77
-67
-75
-79
-67
-73
-79
-67
-73
-69
-65
-69
-63
-55
-63
-59
-59
-59
-47
-43
-47
-45
-47
-47
-41
-41
-41
-33
-41
-43
-37
-43
-43
-31
-35
-37
-23
-25
-29
-25
-37
-25
-19
-21
-25
-19
-25
-23
-15
-15
-27
-15
-13
-17
-13
-15
-25
-19
-19
-23
-13
-11
-15
-9
-9
1
23
19
21
33
37
35
53
69
89
121
121
115
123
107
81
73
53
41
25
13
-1
-3
-11
-13
-7
-23
-27
-19
-25
-29
-25
-27
-19
-13
-19
-25
-11
-6
-16
-5
-5
-1
39
63
75
113
169
279
449
599
548
358
139
-45
-157
-228
-201
-115
-59
-31
-5
7
1
9
-5
-9
-7
-10
-15
-15
-19
-21
-9
-11
-13
-1
-7
-15
-7
-3
-9
-11
-13
-19
-11
-5
-16
-9
-13
-11
-1
-5
-3
3
5
15
21
13
17
37
35
37
59
65
65
85
91
91
113
121
135
161
159
167
197
209
217
237
245
251
269
275
285
299
300
297
296
289
267
255
233
217
205
173
161
147
125
101
95
81
71
67
55
31
37
29
21
25
19
9
19
13
11
9
5
1
-3
-1
-5
5
5
-1
-7
-7
-3
1
1
1
3
3
1
3
-3
-5
-7
-9
-9
1
-7
-15
-7
-13
-7
-1
-1
-1
11
-1
1
9
5
-1
3
-9
-5
1
-5
-9
-5
-5
-2
11
3
-5
3
1
5
17
13
5
13
5
1
11
3
-1
11
3
5
11
7
-1
9
-1
3
7
-3
-1
9
1
-1
9
5
3
9
1
-5
3
-5
-9
-3
-1
-1
7
-5
-5
7
-1
-5
7
-3
-3
3
1
-3
-1
1
-3
5
-1
-3
5
3
-3
3
-1
-9
5
-1
-9
-7
-9
-11
11
3
17
33
35
33
55
55
57
81
89
109
129
127
117
111
85
69
67
37
17
9
-13
-25
-27
-29
-39
-29
-39
-47
-41
-39
-53
-47
-59
-55
-39
-49
-57
-41
-45
-48
-31
-35
-37
5
13
43
79
141
253
413
513
403
193
-21
-177
-274
-319
-255
-169
-109
-83
-61
-71
-79
-77
-81
-83
-93
-93
-91
-89
-87
-85
-87
-85
-89
-83
-67
-71
-83
-83
-79
-79
-85
-87
-77
-89
-79
-77
-67
-71
-70
-75
-75
-73
-67
-63
-61
-59
-51
-43
-36
-27
-25
-13
-6
-1
11
21
37
51
57
73
83
97
117
133
143
157
171
181
188
201
209
213
213
215
204
193
183
159
131
117
93
73
61
51
16
1
-15
-27
-31
-44
-51
-61
-63
-73
-83
-83
-79
-87
-93
-93
-93
-95
-89
-101
-103
-103
-107
-109
-101
-105
-109
-115
-109
-113
-109
-105
-108
-109
-107
-109
-117
-111
-117
-106
-109
-105
-99
-103
-109
-99
-101
-107
-97
-105
-109
-105
-109
-101
-99
-109
-101
-107
-99
-111
-103
-103
-109
-109
-121
-117
-107
-101
-107
-105
-101
-115
-105
-103
-113
-105
-114
-121
-111
-121
-125
-121
-115
-113
-105
-109
-125
-107
-113
-119
-114
-115
-121
-107
-117
-117
-115
-119
-115
-109
-115
-123
-118
-121
-125
-113
-115
-121
-113
-121
-127
-123
-121
-142
-123
-119
-125
-111
-127
-137
-133
-127
-123
-107
-109
-111
-105
-99
-90
-77
-79
-73
-59
-36
-27
-7
3
7
13
9
-13
-29
-37
-69
-89
-103
-109
-119
-135
-137
-129
-133
-135
-131
-137
-145
-143
-138
-137
-137
-141
-145
-137
-137
-137
-123
-133
-135
-117
-105
-85
-65
-37
25
137
297
379
272
51
-153
-276
-364
-381
-333
-269
-205
-153
-137
-125
-125
-121
-133
-137
-137
-143
-129
-129
-133
-125
-127
-131
-123
-113
-123
-121
-123
-123
-113
-121
-125
-115
-119
-123
-109
-99
-107
-96
-97
-99
-91
-93
-93
-79
-73
-73
-49
-47
-55
-43
-41
-27
-1
-1
1
19
21
39
57
75
83
113
119
137
151
165
173
189
196
187
207
209
211
219
215
189
197
169
147
133
115
89
81
67
49
43
21
-5
7
-4
-15
-15
-29
-37
-29
-35
-35
-25
-31
-37
-27
-45
-43
-29
-31
-39
-31
-31
-25
-29
-35
-27
-25
-25
-15
-17
-25
-13
-11
-13
-5
-15
-17
-13
-9
-15
-3
-7
-13
-5
-3
1
1
-3
-9
-11
-9
-7
-1
-9
-13
-3
-15
-15
-7
-11
-15
-9
-9
-19
-7
-11
-9
-1
-3
-11
3
-3
-5
-1
-7
-7
9
5
5
17
7
-1
13
9
9
21
17
21
21
21
16
29
25
17
25
21
17
33
25
21
27
27
21
23
23
19
19
25
21
25
33
25
37
29
23
35
31
31
35
33
29
33
37
37
49
49
37
43
33
33
51
43
49
65
67
73
93
89
89
113
133
149
177
167
163
155
133
113
113
101
75
57
45
31
25
19
15
17
19
11
17
21
9
21
11
11
23
21
19
25
23
17
31
29
41
87
101
125
165
245
371
569
652
517
305
103
-64
-167
-191
-139
-61
-15
15
41
37
35
37
25
19
23
21
21
31
29
27
29
19
13
29
29
27
31
21
27
33
25
29
35
33
29
37
37
37
35
37
33
41
55
57
65
65
61
71
77
85
95
103
107
127
137
139
157
168
179
196
208
225
241
251
261
285
295
309
325
321
327
339
331
329
331
323
293
291
273
245
229
209
179
169
153
139
129
125
107
95
93
81
85
73
71
65
63
55
67
57
53
53
45
47
45
39
41
47
49
39
45
39
35
45
35
33
49
43
33
45
41
35
49
39
29
31
39
35
37
41
35
39
29
33
37
27
23
25
29
23
31
27
29
29
21
23
35
41
27
27
33
35
37
23
19
35
35
29
37
33
19
33
27
27
33
29
25
37
25
29
33
31
19
23
17
17
23
17
19
23
19
17
27
19
13
17
17
17
23
21
11
13
17
9
21
13
13
9
5
17
23
11
-1
15
5
5
13
13
7
13
-1
-7
5
-1
-3
-1
-1
-5
5
-1
-7
-1
-1
5
13
17
19
33
37
43
65
79
93
119
125
115
107
87
59
49
31
11
5
-15
-31
-39
-47
-63
-45
-47
-63
-49
-59
-69
-59
-61
-57
-57
-65
-63
-53
-69
-69
-61
-61
-63
-23
1
21
45
83
165
293
445
445
265
23
-162
-269
-339
-335
-251
-165
-121
-83
-77
-83
-83
-91
-91
-95
-91
-97
-93
-95
-93
-95
-79
-91
-87
-89
-89
-87
-87
-89
-83
-83
-89
-81
-95
-95
-85
-83
-85
-77
-81
-77
-67
-69
-75
-51
-55
-53
-43
-41
-35
-25
-27
-9
-1
3
9
33
53
71
85
91
93
109
129
149
167
171
173
191
199
208
213
211
209
209
205
181
169
155
133
117
89
69
55
39
17
5
-9
-13
-25
-39
-51
-57
-63
-71
-75
-71
-73
-73
-79
-89
-89
-99
-105
-97
-101
-108
-105
-107
-116
-103
-97
-105
-95
-105
-107
-95
-103
-117
-103
-103
-107
-103
-101
-105
-95
-97
-112
-107
-101
-96
-99
-107
-107
-101
-103
-108
-99
-109
-113
-112
-111
-105
-103
-113
-121
-113
-123
-119
-111
-107
-119
-115
-113
-115
-111
-115
-119
-119
-123
-117
-107
-109
-117
-111
-117
-127
-115
-113
-117
-113
-121
-129
-114
-121
-123
-115
-125
-125
-119
-111
-121
-121
-125
-129
-127
-129
-130
-111
-125
-131
-119
-131
-137
-129
-139
-143
-134
-139
-137
-129
-133
-131
-127
-137
-137
-133
-131
-139
-133
-133
-133
-125
-109
-109
-95
-95
-95
-81
-65
-41
-3
11
11
-1
-11
-29
-31
-57
-77
-91
-112
-127
-129
-137
-145
-146
-151
-149
-143
-147
-159
-149
-155
-161
-149
-155
-159
-137
-142
-145
-129
-129
-139
-127
-115
-95
-75
-43
13
151
291
391
279
70
-144
-281
-375
-401
-353
-281
-207
-155
-139
-135
-129
-135
-143
-139
-142
-151
-131
-137
-137
-131
-137
-141
-129
-131
-133
-123
-129
-127
-117
-129
-123
-115
-119
-121
-113
-99
-105
-101
-93
-93
-87
-89
-79
-73
-69
-69
-57
-51
-31
-33
-23
-1
-1
17
33
33
51
61
75
81
113
133
145
160
165
177
189
201
213
221
217
217
229
227
225
219
213
187
181
169
141
127
99
83
75
55
55
29
17
13
5
-5
-13
-9
-17
-19
-11
-23
-25
-19
-23
-27
-15
-21
-29
-19
-27
-27
-15
-15
-19
-15
-9
-17
-13
-11
-11
-9
-7
-3
5
-7
-5
-1
3
1
7
-1
5
13
-1
-3
7
5
5
5
3
-1
11
9
5
17
15
11
21
17
9
21
17
17
25
21
17
23
17
11
25
19
19
21
17
17
23
11
13
17
19
9
25
25
19
29
25
13
17
13
13
21
16
15
27
27
11
17
9
7
13
21
19
21
19
17
25
21
21
31
17
13
27
29
19
35
35
29
37
35
33
39
29
25
33
25
27
41
39
39
51
59
65
73
83
77
93
99
117
149
161
175
192
181
161
144
123
101
97
69
55
55
37
19
25
29
19
27
13
19
23
19
19
29
17
19
23
23
29
33
35
37
43
61
97
121
145
189
301
453
641
679
504
263
63
-95
-193
-181
-108
-49
5
33
39
45
37
31
37
31
29
35
29
25
31
29
27
41
33
37
39
35
29
39
37
29
41
43
41
43
39
43
57
51
49
61
63
55
65
63
73
85
83
85
97
105
107
121
129
137
149
167
179
203
209
221
245
248
261
289
293
303
315
327
333
345
341
341
343
339
333
333
321
291
277
257
243
227
207
191
172
143
129
127
121
109
107
95
77
85
69
67
69
57
61
67
53
51
61
49
49
51
57
39
51
41
37
51
41
45
47
39
33
51
41
45
43
43
33
49
41
37
43
39
33
43
41
29
37
37
25
43
37
33
41
29
21
33
33
31
35
33
27
33
28
25
25
23
23
37
29
17
25
17
13
17
17
15
25
17
7
17
11
13
17
11
7
19
15
15
17
11
3
17
15
11
19
9
-1
9
13
5
9
3
-1
5
3
-3
-3
-9
-3
7
9
-1
5
1
-1
7
13
1
7
-5
-5
5
5
1
3
-3
-9
3
3
1
9
-3
-1
3
5
11
25
23
25
39
49
55
75
81
101
133
143
137
129
105
69
55
33
13
1
-9
-21
-27
-45
-51
-43
-51
-63
-57
-57
-57
-53
-55
-61
-63
-61
-61
-55
-51
-53
-49
-55
-53
-21
-5
13
51
85
171
309
471
487
299
63
-129
-252
-320
-308
-247
-169
-105
-73
-75
-77
-87
-89
-73
-77
-83
-79
-87
-71
-67
-75
-73
-75
-83
-83
-75
-73
-75
-69
-81
-85
-73
-79
-89
-79
-81
-79
-73
-77
-81
-65
-63
-63
-61
-57
-61
-47
-37
-43
-31
-27
-17
-7
-7
-3
5
25
33
43
51
65
91
103
115
135
141
147
177
183
193
205
203
209
213
209
191
181
173
147
133
109
89
79
53
37
31
16
-11
-15
-37
-57
-49
-61
-73
-71
-77
-89
-85
-93
-93
-89
-97
-99
-89
-95
-109
-101
-107
-113
-109
-105
-109
-107
-103
-117
-111
-121
-125
-115
-113
-111
-109
-115
-123
-110
-113
-123
-105
-114
-117
-113
-109
-123
-109
-117
-129
-123
-125
-129
-115
-117
-121
-121
-125
-123
-113
-121
-129
-123
-127
-129
-121
-121
-125
-121
-130
-133
-129
-129
-129
-129
-133
-139
-138
-146
-137
-129
-133
-143
-129
-131
-127
-127
-133
-135
-137
-133
-133
-127
-127
-139
-129
-139
-137
-127
-125
-143
-133
-133
-129
-119
-131
-147
-141
-143
-137
-129
-141
-147
-139
-133
-139
-137
-143
-158
-143
-143
-139
-137
-143
-153
-139
-130
-121
-99
-95
-103
-85
-73
-55
-25
-5
5
17
5
-21
-25
-43
-57
-77
-95
-119
-119
-133
-149
-138
-157
-155
-142
-145
-153
-145
-155
-163
-147
-149
-147
-137
-141
-137
-133
-133
-135
-121
-113
-85
-69
-51
-11
67
213
361
397
237
11
-182
-305
-375
-375
-324
-236
-165
-125
-123
-117
-125
-121
-129
-123
-131
-121
-127
-121
-111
-117
-115
-105
-121
-123
-115
-121
-121
-107
-113
-113
-109
-97
-111
-99
-98
-99
-91
-87
-85
-79
-75
-75
-67
-71
-73
-59
-57
-47
-37
-31
-31
-5
7
11
25
33
35
59
80
79
109
121
125
151
157
169
185
185
192
205
217
217
227
215
209
205
195
173
165
145
113
101
93
71
67
51
35
31
17
9
5
-5
-15
-15
-16
-31
-31
-27
-31
-25
-23
-23
-27
-31
-35
-25
-27
-31
-23
-29
-29
-23
-17
-13
-13
-21
-27
-19
-17
-15
-13
-19
-16
-9
-15
-19
-11
-11
-15
-11
-9
-13
-9
-13
-13
-9
-9
-9
-7
-13
-7
-5
-3
-11
-1
3
-5
-1
-1
-7
3
5
-3
1
3
-3
3
-1
-9
1
1
-1
7
1
-1
7
1
-1
15
5
-1
7
-1
-1
11
-1
1
7
9
-3
9
9
-1
11
-1
-9
9
5
1
5
1
5
11
5
1
11
9
3
13
13
5
13
13
7
9
7
3
11
-1
5
23
13
9
17
13
23
29
37
39
49
57
59
63
81
103
127
149
159
173
157
152
131
113
99
87
73
49
49
35
17
13
5
5
9
5
1
7
7
7
11
7
9
19
17
19
23
27
27
23
45
65
89
97
133
201
319
485
644
588
385
169
-9
-139
-209
-173
-89
-35
21
37
41
31
25
23
27
23
19
21
16
21
17
17
17
13
19
21
19
23
25
21
21
25
23
27
21
25
31
33
29
25
33
33
37
39
49
49
49
51
63
67
81
87
99
105
109
127
133
144
157
175
191
209
231
235
241
261
263
277
293
303
309
313
325
317
313
323
301
285
281
263
235
227
209
181
177
153
131
125
109
97
93
73
51
55
49
35
37
35
33
31
25
21
23
25
13
17
21
21
17
9
7
17
5
3
13
5
11
19
11
5
3
-3
11
17
15
9
13
15
5
15
7
1
3
-1
-1
17
11
5
5
5
1
11
13
-3
9
7
7
17
1
-1
9
3
-1
7
11
-3
5
5
7
5
-3
-3
-1
-5
-7
-3
1
-1
-11
-13
-11
-5
-9
-19
-5
-15
-11
-1
-7
-11
-11
-13
-15
-3
-7
-13
-11
-15
-19
-3
-5
-11
-7
-13
-17
-13
-9
-19
-9
-15
-15
-9
-13
-19
-13
-19
-21
-9
-15
-19
-15
-13
-19
-9
-11
-15
-9
-11
-3
-3
-1
11
19
17
31
33
41
55
69
75
107
121
131
137
117
101
81
65
47
35
13
-9
-13
-31
-27
-31
-43
-49
-31
-51
-48
-51
-47
-55
-43
-51
-51
-47
-49
-53
-41
-43
-45
-31
-15
1
31
53
89
177
305
465
506
329
101
-77
-215
-295
-297
-231
-155
-103
-77
-77
-75
-87
-89
-77
-63
-81
-77
-81
-75
-71
-79
-75
-59
-67
-67
-63
-59
-75
-65
-69
-77
-77
-85
-79
-75
-89
-89
-73
-67
-71
-89
-95
-77
-47
-33
-55
-53
-49
-47
-39
-37
-25
-3
-3
17
63
51
39
79
97
111
141
141
119
123
115
99
113
165
193
217
217
235
233
199
165
167
149
145
117
87
65
45
3
-7
7
-25
-51
-47
-47
-55
-67
-77
-75
-73
-91
-97
-101
-121
-121
-111
-111
-115
-99
-109
-121
-119
-121
-119
-103
-115
-121
-117
-127
-133
-125
-131
-129
-125
-129
-123
-111
-123
-127
-121
-121
-129
-125
-131
-129
-121
-125
-123
-115
-123
-133
-123
-127
-143
-141
-141
-113
-95
-111
-157
-163
-167
-165
-158
-159
-154
-143
-144
-151
-137
-141
-147
-151
-147
-153
-139
-141
-155
-153
-149
-143
-137
-153
-153
-147
-157
-157
-149
-153
-155
-142
-147
-149
-143
-149
-153
-144
-154
-147
-143
-149
-153
-137
-143
-137
-137
-149
-153
-141
-143
-133
-129
-139
-129
-133
-139
-125
-143
-149
-131
-133
-133
-123
-109
-105
-87
-87
-83
-63
-57
-41
3
13
9
5
-7
-31
-41
-63
-81
-89
-115
-127
-133
-149
-147
-131
-139
-149
-141
-149
-155
-147
-154
-154
-145
-149
-151
-139
-137
-139
-129
-137
-123
-111
-105
-85
-57
-31
35
153
303
357
231
15
-173
-284
-359
-381
-329
-255
-179
-127
-117
-129
-123
-129
-134
-125
-129
-131
-129
-133
-129
-117
-119
-129
-119
-121
-129
-121
-123
-129
-121
-119
-117
-105
-111
-113
-101
-103
-111
-91
-73
-87
-79
-79
-73
-59
-63
-65
-51
-41
-49
-37
-35
-31
-9
7
-1
27
35
53
59
67
77
101
119
119
141
149
153
185
183
189
203
199
201
203
189
181
181
157
135
123
101
85
73
55
27
23
11
-9
-5
-25
-35
-29
-41
-53
-57
-61
-67
-61
-65
-63
-55
-63
-65
-51
-61
-61
-55
-63
-63
-47
-53
-59
-45
-47
-51
-41
-45
-39
-43
-47
-50
-39
-41
-35
-25
-37
-41
-31
-31
-41
-27
-45
-51
-37
-31
-29
-31
-43
-41
-33
-31
-37
-23
-31
-39
-37
-35
-41
-23
-27
-35
-25
-27
-31
-21
-35
-39
-33
-29
-31
-15
-29
-35
-31
-23
-29
-23
-19
-35
-27
-25
-27
-11
-16
-29
-21
-21
-23
-9
-11
-25
-9
-11
-5
-16
-19
-9
-11
-19
-3
-1
-3
-1
-7
-11
5
-1
-1
3
-1
-5
11
-1
-7
1
3
1
11
9
1
5
1
-1
17
7
13
25
33
29
53
57
57
69
76
89
117
133
137
145
137
119
103
85
65
53
31
7
11
1
-9
-9
-13
-15
-17
-19
-21
-5
-11
-25
-11
-15
-15
-1
-3
-11
-1
1
-7
16
41
69
87
119
185
311
485
617
550
348
131
-47
-172
-239
-185
-117
-55
-11
15
3
1
13
-3
1
-5
-5
-1
-3
-5
1
-7
-13
1
7
-1
3
-7
-7
5
-1
-1
5
5
-11
-5
-7
-3
3
5
-1
9
13
13
19
19
17
37
30
29
51
51
51
65
77
81
97
113
113
133
149
165
183
197
197
221
229
241
261
255
265
285
285
281
289
289
273
273
255
233
225
205
179
165
147
129
117
101
79
81
63
48
53
33
21
23
17
9
13
11
-1
-1
-1
-5
7
-9
-15
-3
-9
-19
-7
-15
-23
-15
-15
-23
-11
-15
-23
-15
-15
-25
-11
-15
-19
-9
-15
-21
-15
-9
-19
-11
-21
-25
-9
-19
-25
-15
-27
-23
-11
-13
-23
-9
-21
-27
-13
-19
-27
-19
-27
-31
-21
-23
-27
-17
-21
-15
-13
-17
-25
-19
-21
-25
-15
-19
-27
-15
-19
-31
-15
-13
-19
-15
-19
-21
-15
-15
-19
-15
-21
-25
-11
-11
-25
-15
-17
-31
-19
-21
-27
-17
-15
-25
-15
-23
-29
-21
-23
-31
-15
-29
-37
-29
-32
-39
-33
-27
-25
-23
-35
-37
-27
-33
-34
-21
-31
-35
-25
-27
-23
-11
-9
-11
11
13
21
37
43
45
83
99
93
95
81
55
45
33
11
-3
-35
-47
-53
-61
-75
-69
-75
-78
-69
-79
-85
-77
-91
-93
-83
-89
-81
-77
-83
-93
-79
-79
-79
-63
-43
-27
-3
27
69
149
289
435
437
256
15
-151
-279
-345
-321
-243
-171
-119
-99
-99
-95
-99
-105
-89
-107
-107
-95
-103
-115
-111
-109
-121
-112
-113
-109
-109
-117
-127
-117
-105
-111
-103
-103
-108
-101
-107
-95
-93
-101
-103
-91
-93
-85
-85
-83
-87
-75
-79
-73
-45
-47
-57
-41
-37
-23
-13
-7
3
17
37
43
77
87
93
109
123
127
151
161
159
177
183
185
195
185
172
171
153
135
127
97
89
61
41
13
5
-15
-33
-45
-61
-75
-73
-85
-83
-91
-103
-109
-99
-105
-115
-105
-119
-125
-118
-121
-131
-121
-137
-131
-129
-129
-139
-125
-137
-137
-133
-135
-142
-129
-137
-137
-131
-137
-145
-137
-138
-143
-131
-131
-137
-123
-137
-149
-135
-135
-125
-127
-129
-133
-123
-127
-129
-135
-137
-129
-121
-123
-121
-127
-129
-133
-139
-138
-127
-129
-142
-130
-122
-127
-121
-129
-137
-129
-129
-134
-127
-127
-137
-133
-129
-135
-125
-127
-131
-123
-129
-137
-117
-129
-137
-129
-133
-141
-137
-145
-139
-137
-139
-137
-129
-141
-143
-137
-137
-137
-130
-131
-143
-143
-153
-143
-133
-133
-139
-141
-141
-141
-131
-135
-144
-135
-127
-129
-111
-103
-107
-91
-89
-79
-49
-19
1
9
3
-15
-25
-45
-71
-79
-101
-111
-125
-137
-151
-155
-158
-157
-143
-153
-169
-161
-157
-155
-159
-153
-160
-151
-159
-159
-149
-153
-153
-143
-137
-129
-92
-81
-63
-5
99
251
365
292
69
-129
-276
-366
-399
-380
-315
-235
-181
-161
-144
-155
-165
-157
-163
-165
-155
-159
-169
-149
-157
-157
-145
-151
-155
-153
-153
-150
-141
-149
-143
-139
-144
-151
-137
-132
-137
-131
-131
-143
-123
-111
-114
-107
-106
-109
-89
-82
-83
-69
-63
-63
-45
-37
-31
-13
-7
-11
11
25
37
61
73
83
103
111
117
137
147
149
165
173
173
191
179
181
177
169
157
151
127
107
97
71
53
39
25
-7
-3
-21
-31
-25
-41
-53
-47
-59
-69
-63
-63
-77
-75
-65
-73
-65
-77
-77
-71
-67
-61
-61
-67
-73
-63
-67
-71
-61
-65
-69
-53
-51
-53
-51
-49
-59
-43
-43
-48
-39
-43
-41
-37
-45
-33
-37
-45
-37
-33
-43
-29
-31
-35
-29
-35
-31
-25
-27
-41
-31
-35
-37
-25
-33
-31
-35
-39
-39
-29
-29
-35
-27
-35
-29
-25
-28
-29
-25
-37
-33
-27
-31
-27
-23
-31
-35
-27
-29
-25
-23
-25
-29
-19
-19
-25
-25
-23
-23
-19
-27
-31
-17
-25
-19
-19
-17
-27
-15
-17
-25
-11
-11
-17
-13
-19
-19
-15
-15
-15
-5
-13
-15
-9
-7
-9
-15
-15
-11
-1
-7
-1
17
29
35
53
51
57
75
95
109
125
127
117
117
95
69
67
49
29
23
5
-13
-9
-17
-29
-21
-29
-31
-19
-25
-35
-27
-33
-31
-25
-15
-21
-15
-15
-25
-13
-11
3
33
59
74
133
235
377
560
591
420
197
-1
-147
-236
-241
-179
-94
-63
-35
-23
-23
-29
-29
-31
-37
-35
-39
-39
-37
-41
-43
-37
-25
-35
-25
-21
-21
-21
-21
-35
-23
-15
-19
-13
-21
-27
-17
-21
-15
-5
-9
-7
-3
-1
-1
13
12
17
23
21
27
45
49
49
75
75
87
105
115
125
149
162
177
199
205
213
229
245
247
269
277
275
293
289
285
293
281
257
245
225
205
195
169
145
133
109
93
89
81
59
43
33
25
31
16
3
9
5
-5
7
-3
-3
-1
-9
-5
-1
-9
-9
-11
-23
-9
-1
-7
-3
-7
-9
-7
-9
-11
-13
-13
-15
-1
-7
-5
-1
-9
-13
3
1
-1
1
-5
-9
-1
-1
-3
5
-3
-9
-1
-1
-11
-1
-7
-13
3
-3
-9
-1
-13
1
1
-1
-7
3
-3
-11
3
-5
-3
-7
-3
-1
-10
-7
-7
-9
-13
-11
-3
-3
-7
-1
1
-9
-13
-5
-7
-9
-5
-7
-7
-11
-9
-1
-13
-15
-19
-9
-9
-9
-15
-19
-9
-7
-7
-11
-15
-3
-11
-7
-11
-11
-11
-13
-1
-3
-11
-9
-7
-5
-9
-13
-5
-3
-11
-5
-5
1
11
13
17
19
21
33
43
57
65
85
109
123
127
125
113
91
67
55
39
17
5
-13
-19
-27
-39
-37
-41
-47
-51
-47
-45
-57
-51
-57
-61
-53
-57
-47
-55
-45
-41
-39
-41
-31
-5
21
37
69
121
220
369
516
470
259
41
-133
-247
-305
-265
-185
-115
-79
-67
-63
-67
-69
-75
-78
-78
-77
-80
-83
-85
-77
-79
-77
-81
-83
-79
-67
-67
-65
-71
-67
-69
-71
-57
-71
-69
-73
-65
-67
-67
-79
-63
-53
-55
-37
-43
-45
-29
-27
-29
-15
-9
-13
-2
17
21
39
53
57
79
87
91
113
127
135
157
179
188
207
207
209
221
233
233
241
241
228
221
195
181
173
141
125
113
91
73
59
29
25
7
-13
-13
-21
-25
-25
-35
-45
-41
-45
-49
-46
-63
-63
-59
-67
-71
-71
-71
-73
-65
-65
-69
-57
-69
-69
-61
-69
-73
-73
-79
-75
-63
-69
-71
-63
-59
-71
-67
-75
-77
-73
-79
-87
-77
-67
-65
-49
-63
-79
-73
-75
-75
-66
-80
-83
-67
-73
-79
-65
-73
-79
-69
-73
-83
-67
-69
-73
-63
-69
-71
-63
-73
-73
-63
-65
-69
-63
-69
-73
-69
-73
-79
-75
-79
-77
-67
-75
-79
-63
-69
-73
-73
-71
-73
-67
-69
-73
-65
-63
-63
-63
-71
-73
-73
-75
-73
-55
-63
-59
-59
-67
-65
-63
-73
-73
-65
-63
-61
-47
-53
-55
-39
-43
-37
-9
7
27
59
65
59
57
47
23
1
-15
-35
-45
-69
-85
-85
-91
-105
-101
-105
-111
-105
-115
-105
-101
-109
-115
-109
-116
-109
-105
-105
-105
-93
-105
-101
-79
-65
-39
-26
13
89
231
367
359
175
-41
-207
-292
-333
-339
-275
-195
-139
-109
-99
-101
-101
-107
-106
-99
-115
-115
-111
-109
-115
-105
-109
-109
-105
-109
-113
-111
-107
-109
-95
-97
-107
-103
-103
-105
-109
-105
-105
-95
-101
-101
-79
-79
-77
-67
-59
-65
-51
-45
-35
-15
-16
-18
-9
3
7
31
33
45
65
83
87
105
111
127
147
161
169
185
201
205
213
213
211
213
209
193
181
161
137
125
105
85
75
37
19
13
5
-3
-5
-15
-27
-25
-31
-35
-41
-41
-41
-41
-53
-57
-51
-51
-51
-45
-48
-51
-41
-49
-47
-39
-47
-39
-29
-43
-45
-41
-36
-35
-25
-35
-35
-27
-31
-31
-23
-37
-31
-27
-21
-37
-41
-41
-35
-29
-25
-27
-31
-37
-47
-27
-27
-29
-29
-35
-47
-33
-35
-33
-29
-31
-43
-25
-31
-31
-27
-31
-35
-27
-27
-29
-13
-23
-25
-15
-17
-21
-9
-21
-17
-15
-21
-19
-15
-17
-15
-15
-15
-23
-9
-11
-15
-5
-13
-15
-1
-9
-15
-5
-12
-21
-7
-13
-15
-13
-13
-19
-5
-3
-13
-7
-11
-15
-5
-7
-13
-5
-9
-11
3
11
16
27
31
49
59
65
81
107
129
147
151
141
129
117
97
77
77
57
37
27
19
7
15
7
-3
3
-1
-13
7
9
7
1
3
-1
15
15
17
27
25
23
31
47
73
103
133
167
275
417
576
606
421
195
11
-137
-213
-211
-145
-65
-1
19
27
31
27
23
25
23
17
23
17
7
23
15
16
27
23
25
49
45
39
45
41
37
39
39
37
41
41
45
53
55
53
55
63
61
73
75
81
87
93
87
111
111
123
137
137
141
165
177
171
193
211
221
243
261
269
277
297
313
321
329
341
333
341
357
361
355
355
345
325
311
291
276
265
233
208
197
181
173
169
149
131
129
117
99
95
95
87
85
73
71
81
73
65
73
65
61
65
61
57
65
67
57
65
63
45
55
63
57
71
61
57
61
55
53
69
57
57
61
67
57
65
61
55
65
55
55
57
53
51
59
51
43
59
53
43
53
53
49
55
47
49
51
41
39
55
49
41
49
45
39
45
45
41
45
39
41
49
47
37
43
35
37
41
41
29
35
33
33
37
33
33
31
23
19
25
25
25
21
15
9
16
13
11
11
5
3
13
13
7
11
7
1
11
3
5
7
1
-4
1
-1
-9
-1
-7
-9
1
1
7
21
21
23
39
48
39
57
69
97
115
117
109
113
99
73
57
29
7
3
-3
-19
-23
-33
-47
-41
-53
-59
-59
-57
-63
-59
-65
-69
-63
-63
-65
-51
-45
-47
-45
-51
-49
-3
17
39
83
145
263
425
494
353
123
-89
-229
-305
-340
-289
-197
-129
-93
-63
-75
-77
-69
-71
-87
-85
-85
-83
-77
-79
-83
-73
-81
-87
-65
-81
-93
-89
-93
-93
-81
-91
-95
-71
-85
-85
-77
-73
-81
-69
-71
-73
-61
-49
-55
-53
-55
-43
-36
-31
-17
-19
-11
11
13
21
39
53
45
73
87
101
113
121
133
157
173
181
201
203
205
225
225
221
229
221
209
201
161
137
133
109
71
71
51
25
19
1
-13
-19
-29
-47
-47
-55
-75
-65
-83
-77
-69
-73
-83
-81
-81
-92
-95
-91
-97
-89
-105
-105
-97
-103
-107
-89
-101
-105
-99
-95
-97
-89
-101
-111
-99
-105
-107
-105
-101
-103
-91
-103
-105
-101
-105
-105
-95
-93
-101
-99
-105
-107
-99
-99
-101
-99
-115
-121
-109
-95
-111
-101
-113
-115
-117
-109
-117
-109
-117
-115
-105
-105
-115
-105
-121
-117
-109
-113
-117
-105
-121
-125
-113
-107
-111
-107
-115
-117
-107
-109
-111
-107
-113
-117
-111
-111
-121
-105
-105
-115
-103
-113
-115
-109
-109
-110
-107
-105
-101
-93
-101
-101
-89
-101
-93
-95
-93
-93
-83
-87
-81
-53
-57
-57
-39
-39
-25
-1
17
43
59
57
49
35
13
-3
-15
-35
-57
-67
-75
-89
-87
-91
-95
-89
-95
-99
-89
-99
-101
-85
-87
-89
-79
-93
-87
-75
-79
-79
-65
-63
-47
-9
13
45
113
221
380
501
415
197
-11
-170
-283
-315
-300
-214
-125
-77
-67
-57
-57
-59
-55
-59
-61
-54
-53
-57
-51
-63
-57
-55
-47
-53
-45
-47
-45
-35
-23
-31
-25
-25
-27
-11
-19
-17
-17
-11
1
3
-1
7
13
13
29
27
27
39
51
49
77
75
83
99
111
109
133
145
151
167
183
205
223
247
253
265
271
275
295
296
297
305
307
313
321
313
295
293
269
252
237
219
195
183
165
149
133
121
97
99
81
69
75
67
55
63
55
39
51
51
49
59
43
43
47
49
37
53
51
47
49
53
45
51
49
41
53
45
48
55
61
49
59
51
49
59
55
53
65
63
53
65
65
47
53
55
51
65
59
57
63
63
57
69
57
57
65
61
57
69
61
57
61
51
59
65
69
61
65
53
51
59
59
55
55
55
53
71
57
49
61
59
59
69
65
57
61
57
57
69
67
61
69
63
61
73
77
67
75
71
63
81
75
71
75
69
71
81
75
69
77
69
77
83
81
81
83
81
73
81
77
81
89
83
85
101
109
113
133
127
137
159
161
177
217
229
229
231
216
189
175
161
143
129
108
93
95
81
67
69
65
59
67
57
59
67
61
57
65
65
55
67
65
69
83
77
75
111
131
149
189
236
331
483
660
668
501
258
69
-57
-133
-127
-49
13
51
85
92
85
89
81
81
85
87
85
83
75
79
93
91
89
93
89
81
93
91
89
103
93
89
99
105
89
101
99
105
117
113
103
119
109
109
125
129
133
141
143
139
159
157
161
179
191
197
209
221
233
251
261
269
293
293
313
331
343
350
367
373
377
393
386
385
393
385
369
373
345
327
325
301
281
273
245
223
221
204
181
181
171
159
147
139
129
129
127
115
119
109
109
113
101
101
107
95
89
99
99
89
97
95
89
105
93
93
97
91
85
101
91
95
101
93
87
97
93
85
89
77
75
77
77
73
85
81
71
83
79
71
77
67
61
71
67
61
67
53
51
63
55
53
61
53
51
59
51
51
55
51
51
61
57
45
59
53
51
51
55
51
59
59
51
51
51
51
53
49
41
53
53
49
53
47
41
53
55
49
53
49
43
45
51
45
53
43
41
53
49
45
53
49
43
55
55
69
75
71
75
97
101
121
139
159
177
193
185
171
155
113
93
91
69
49
37
17
15
5
1
-3
-1
-7
-13
-1
-3
1
1
-3
-11
1
1
-1
5
7
1
17
31
61
93
107
149
249
373
515
500
321
107
-45
-149
-220
-219
-157
-85
-23
-7
-3
1
-9
-11
-9
-11
-3
-7
-11
-7
-9
-19
1
17
7
13
16
11
11
17
5
13
13
9
17
17
13
15
19
17
25
25
19
23
27
29
35
35
35
43
49
57
69
75
85
99
97
108
128
143
153
169
181
195
215
219
233
243
248
256
267
265
277
281
275
277
281
275
253
241
221
197
183
169
145
133
113
101
77
63
43
45
39
29
33
21
11
21
5
-1
3
-3
-15
-7
-5
-7
-5
-5
-11
-5
-13
-17
-9
-9
-21
-11
-11
-16
-9
-9
-13
-7
-11
-25
-9
-7
-15
-9
-15
-29
-19
-19
-19
-9
-21
-23
-21
-16
-31
-15
-29
-33
-25
-25
-37
-21
-35
-35
-31
-27
-45
-23
-31
-35
-31
-35
-39
-31
-31
-41
-27
-35
-35
-25
-29
-31
-15
-31
-27
-23
-31
-37
-23
-27
-29
-21
-29
-37
-29
-27
-29
-19
-35
-37
-31
-33
-29
-25
-27
-31
-27
-35
-35
-25
-28
-37
-29
-29
-31
-21
-21
-29
-19
-21
-19
-7
-9
-7
5
11
25
33
35
45
67
91
97
113
105
89
75
57
41
31
-3
-15
-15
-31
-43
-43
-48
-53
-47
-45
-53
-49
-51
-51
-47
-55
-53
-41
-45
-47
-41
-41
-33
-27
-11
13
45
67
101
197
325
476
506
339
127
-45
-161
-246
-249
-185
-99
-53
-41
-29
-31
-43
-29
-32
-31
-25
-37
-31
-29
-19
-27
-15
-23
-23
-15
-21
-21
-11
-19
-25
-15
-25
-23
-17
-23
-15
-7
-11
-15
-9
-11
-13
-3
-1
-1
9
5
11
23
25
33
53
49
55
73
87
89
109
113
123
139
153
165
187
191
205
219
231
235
245
247
260
265
265
253
259
241
229
217
205
181
165
139
105
99
81
65
45
25
13
5
-1
-1
-3
-11
-21
-19
-25
-31
-31
-29
-41
-41
-31
-35
-33
-37
-45
-47
-47
-47
-53
-47
-53
-53
-53
-57
-51
-53
-55
-63
-61
-63
-59
-65
-63
-63
-61
-67
-61
-67
-71
-67
-71
-73
-69
-67
-75
-79
-77
-77
-71
-69
-79
-73
-79
-81
-69
-73
-79
-79
-85
-89
-79
-80
-93
-83
-85
-79
-77
-80
-83
-79
-79
-83
-77
-79
-85
-89
-85
-85
-75
-83
-87
-89
-91
-91
-83
-80
-75
-89
-89
-87
-76
-85
-93
-91
-85
-90
-89
-89
-89
-93
-93
-83
-85
-83
-95
-103
-95
-93
-87
-85
-91
-87
-79
-79
-69
-61
-51
-51
-41
-43
-25
-11
16
37
57
49
43
29
1
-11
-27
-47
-75
-75
-89
-91
-105
-109
-107
-117
-125
-127
-121
-123
-123
-125
-121
-123
-125
-123
-121
-115
-109
-109
-109
-105
-103
-71
-57
-45
-3
85
217
347
309
139
-37
-182
-284
-345
-351
-279
-201
-139
-107
-111
-119
-121
-123
-123
-129
-127
-125
-114
-115
-118
-121
-117
-121
-125
-123
-133
-125
-121
-119
-127
-127
-135
-129
-125
-127
-127
-109
-115
-107
-113
-112
-96
-89
-95
-89
-79
-73
-63
-61
-65
-59
-53
-53
-39
-29
-27
-1
3
9
25
39
49
63
67
75
101
107
121
131
137
145
153
155
147
155
135
128
125
109
91
71
57
37
23
1
-25
-29
-39
-63
-61
-71
-83
-79
-81
-105
-89
-95
-109
-107
-109
-111
-101
-109
-109
-105
-101
-99
-97
-99
-109
-99
-105
-97
-95
-99
-105
-95
-95
-95
-85
-85
-93
-85
-93
-95
-91
-89
-97
-95
-89
-95
-93
-96
-101
-91
-91
-85
-81
-89
-95
-89
-81
-89
-81
-83
-89
-89
-95
-93
-79
-78
-87
-74
-85
-83
-75
-75
-80
-75
-71
-78
-67
-75
-73
-73
-67
-70
-61
-60
-71
-59
-63
-63
-51
-53
-55
-53
-55
-51
-43
-51
-51
-42
-44
-53
-39
-45
-39
-35
-43
-41
-31
-39
-39
-31
-27
-39
-25
-25
-37
-27
-35
-31
-25
-17
-25
-11
-15
-1
17
23
25
39
43
53
81
99
127
149
131
117
109
87
69
55
33
7
-1
-9
-11
-15
-19
-31
-21
-19
-27
-21
-23
-27
-15
-23
-21
-11
-13
-15
-3
-1
11
5
3
45
69
99
137
211
329
513
631
521
315
95
-67
-173
-219
-165
-83
-29
1
27
21
21
19
17
7
7
7
13
13
7
15
21
13
15
23
11
9
17
17
7
21
19
17
25
11
25
33
29
25
41
41
41
55
53
53
65
61
65
81
87
85
97
99
109
133
137
137
165
171
173
204
217
219
241
253
265
291
297
304
317
319
325
325
337
327
325
315
305
293
281
251
241
217
191
183
165
147
145
123
117
113
105
88
83
71
65
69
59
61
59
53
45
57
48
48
49
45
39
37
49
45
37
45
35
31
39
35
37
33
37
41
45
39
35
39
39
39
45
39
39
41
35
39
45
39
37
39
37
37
41
43
31
35
39
37
49
41
37
43
45
33
39
33
33
37
37
39
47
43
33
37
33
33
43
39
33
39
37
31
45
41
33
43
35
31
45
43
37
41
37
39
48
45
29
41
41
39
49
43
43
51
49
45
53
43
49
57
51
45
53
49
49
55
49
47
61
51
55
59
51
49
57
57
59
69
75
77
105
115
109
125
129
137
177
197
197
199
181
163
153
139
115
99
73
53
57
49
53
39
39
33
31
33
45
33
31
43
41
37
41
33
37
45
41
49
63
59
85
121
141
165
229
333
487
644
581
376
171
1
-115
-173
-145
-73
-5
35
45
57
53
49
51
45
37
33
33
37
43
39
33
37
35
27
45
37
33
37
37
31
45
43
37
41
43
40
55
49
39
53
49
51
65
73
73
81
75
81
97
113
107
117
117
119
145
153
151
175
177
189
217
235
241
265
271
283
308
313
313
329
325
328
345
331
325
323
309
281
281
259
231
223
201
181
165
151
133
127
117
93
97
85
71
73
61
61
61
53
45
53
45
37
43
43
37
43
33
29
33
27
17
19
23
21
21
15
11
13
7
9
9
9
5
7
-7
-1
5
-1
-3
3
-1
-1
-5
-11
-23
-13
-19
-25
-11
-9
-27
-15
-11
-15
-9
-21
-25
-15
-19
-25
-9
-15
-15
-15
-13
-15
-9
-15
-21
-11
-13
-25
-11
-11
-11
-5
-19
-15
-5
-19
-16
-7
-15
-19
-9
-11
-15
-3
-11
-19
-9
-15
-16
-11
-15
-21
-15
-13
-17
-13
-11
-9
-5
-9
-15
-7
-13
-25
-9
-13
-7
-9
-20
-29
-11
-15
-13
-11
-11
-13
-3
-3
-7
7
7
7
23
31
39
59
63
99
119
137
137
129
113
97
80
61
47
21
3
3
-5
-11
-11
-21
-29
-29
-41
-41
-29
-32
-43
-31
-35
-31
-25
-31
-37
-27
-31
-30
-21
-11
13
33
49
87
149
256
385
421
263
49
-102
-201
-270
-284
-241
-165
-87
-51
-43
-39
-47
-55
-47
-51
-59
-47
-47
-52
-43
-43
-51
-57
-59
-57
-57
-61
-43
-45
-47
-47
-33
-35
-37
-29
-31
-39
-27
-31
-33
-29
-25
-25
-9
-11
-9
-5
-1
-7
5
15
17
33
31
45
65
69
75
95
109
115
137
151
165
177
181
183
205
221
221
233
231
225
229
229
223
217
193
177
169
147
117
99
71
53
41
21
3
3
-13
-31
-31
-36
-45
-45
-53
-67
-63
-67
-79
-71
-73
-79
-63
-61
-69
-65
-77
-86
-67
-73
-75
-73
-73
-83
-77
-73
-77
-75
-77
-79
-67
-66
-81
-79
-85
-87
-73
-75
-79
-73
-79
-85
-75
-78
-85
-79
-80
-87
-73
-81
-91
-83
-87
-95
-87
-89
-95
-87
-95
-105
-85
-89
-97
-89
-83
-93
-79
-87
-89
-79
-87
-95
-80
-85
-79
-81
-85
-85
-77
-75
-91
-79
-87
-89
-79
-75
-82
-79
-83
-89
-77
-79
-83
-79
-83
-89
-79
-73
-73
-61
-77
-77
-67
-73
-73
-63
-59
-73
-55
-59
-67
-53
-45
-59
-47
-47
-27
-15
-19
-3
11
9
37
65
77
97
101
91
89
69
41
27
-1
-7
-11
-35
-41
-47
-43
-45
-43
-51
-57
-45
-53
-55
-51
-53
-53
-41
-45
-41
-29
-33
-39
-33
-31
-15
23
45
61
109
189
313
459
445
264
69
-89
-197
-245
-247
-187
-105
-53
-31
-15
-17
-28
-27
-31
-43
-33
-19
-27
-19
-23
-33
-21
-23
-27
-15
-15
-19
-5
-11
-9
-3
-11
-15
-5
-3
-7
-7
-5
-9
7
3
3
5
7
7
21
19
23
41
45
47
59
63
71
87
85
97
123
131
143
161
163
169
191
211
213
229
236
247
261
265
261
265
265
252
265
257
237
229
209
185
177
149
147
125
107
85
73
67
35
45
31
21
23
25
11
11
5
-3
-1
-9
-4
-1
-3
-11
-5
-5
-7
-7
-16
-23
-11
-11
-19
-11
-13
-15
-5
-13
-10
-3
-3
-5
1
-1
-15
-5
-3
-5
-1
-9
-9
-7
-15
-19
-9
-7
-11
-9
-9
-11
-13
-11
-15
-9
-13
-21
-9
-13
-21
-11
-9
-9
-9
-11
-13
-5
-11
-14
-5
-5
-9
-5
-11
-13
-3
-5
-13
-7
-9
-9
-1
-5
-4
-1
-5
-5
-3
-9
-11
-1
-11
-13
-5
-1
-1
7
1
-9
-1
-1
-7
1
-3
-1
5
5
9
11
9
11
5
7
17
17
5
29
17
13
17
23
17
29
17
17
21
21
17
41
39
47
63
69
73
81
81
99
137
141
155
155
137
117
109
85
65
59
39
21
23
16
-1
5
-3
-1
-3
-9
-5
-3
-9
-15
-5
-11
-11
-9
-3
-5
7
-1
11
13
39
55
87
115
163
267
425
579
564
371
155
-13
-147
-217
-193
-119
-57
-15
5
7
7
3
-3
3
-7
-1
-1
-3
-3
-1
-7
-7
5
1
-5
1
3
-1
-1
-3
-7
-3
-5
-7
-3
-3
-1
11
1
5
13
15
11
17
19
17
33
33
37
51
55
57
77
77
81
101
109
121
135
135
157
173
184
197
217
223
245
257
257
257
276
273
285
297
287
281
275
257
237
227
205
187
173
153
133
119
97
81
69
65
43
45
35
27
25
9
7
11
7
-1
1
1
1
11
9
-5
-7
-13
-13
-9
-11
-11
-1
-11
-19
-5
-11
-13
-9
-19
-19
-9
-15
-15
-15
-15
-16
-9
-9
-13
-7
-15
-19
-9
-17
-17
-9
-19
-15
-7
-11
-23
-21
-25
-21
-13
-17
-27
-21
-21
-23
-13
-23
-25
-17
-19
-21
-15
-17
-24
-15
-23
-23
-13
-17
-17
-13
-27
-25
-13
-16
-19
-15
-21
-21
-11
-21
-5
-15
-15
-7
-11
-19
-5
-17
-21
-9
-19
-23
-19
-23
-23
-15
-9
-19
-3
-15
-21
-13
-13
-23
-9
-17
-15
-1
-5
-11
-3
-13
-19
-9
-15
-15
-9
-13
-19
-15
-11
-15
-7
-5
-7
1
7
16
29
29
29
45
55
77
103
119
121
125
109
93
85
61
43
35
17
-1
-13
-27
-35
-37
-45
-43
-29
-41
-50
-35
-41
-43
-29
-37
-47
-29
-39
-37
-21
-27
-35
-25
-21
11
47
59
89
157
275
437
527
401
181
-5
-147
-233
-249
-198
-133
-59
-47
-43
-33
-45
-45
-43
-51
-53
-47
-37
-51
-37
-49
-51
-43
-57
-57
-47
-47
-57
-47
-47
-49
-47
-51
-57
-51
-53
-59
-59
-57
-61
-41
-51
-47
-33
-45
-37
-25
-25
-27
-11
-15
-9
5
11
15
35
45
53
75
81
85
105
113
123
157
161
173
193
201
201
223
225
237
232
223
219
229
197
186
185
147
123
119
97
69
55
41
19
-1
-11
-15
-13
-37
-49
-47
-55
-63
-59
-65
-77
-73
-69
-73
-75
-79
-89
-89
-79
-89
-83
-89
-91
-81
-87
-89
-87
-91
-99
-89
-91
-95
-89
-95
-105
-107
-96
-99
-93
-97
-108
-93
-101
-102
-89
-99
-103
-95
-95
-91
-91
-97
-111
-101
-105
-107
-91
-97
-105
-95
-101
-105
-99
-101
-96
-97
-97
-95
-106
-107
-99
-95
-103
-93
-93
-99
-99
-96
-103
-81
-93
-107
-95
-96
-105
-89
-97
-103
-89
-91
-101
-85
-89
-95
-87
-99
-91
-87
-91
-99
-105
-99
-91
-85
-95
-100
-91
-97
-99
-89
-93
-97
-93
-97
-97
-85
-97
-101
-95
-97
-97
-83
-89
-91
-73
-73
-73
-61
-63
-61
-53
-45
-31
13
41
43
53
37
17
5
-11
-27
-39
-73
-97
-89
-95
-105
-111
-121
-121
-109
-119
-129
-127
-129
-129
-116
-109
-123
-123
-125
-121
-119
-107
-123
-113
-105
-95
-69
-63
-39
27
125
265
355
241
41
-125
-242
-337
-351
-323
-265
-179
-141
-129
-129
-137
-147
-133
-137
-139
-141
-141
-141
-141
-149
-160
-147
-144
-137
-131
-141
-143
-139
-143
-139
-137
-137
-133
-135
-137
-121
-127
-117
-119
-115
-105
-111
-105
-101
-101
-99
-91
-87
-79
-77
-71
-59
-54
-39
-25
-23
-11
-7
-1
23
29
45
67
77
75
93
101
123
135
141
141
155
155
155
157
139
123
117
105
85
79
53
31
29
-5
-15
-25
-51
-63
-59
-73
-83
-89
-96
-99
-89
-93
-101
-95
-102
-109
-101
-109
-109
-97
-107
-109
-91
-91
-99
-93
-93
-103
-101
-89
-93
-91
-93
-95
-91
-95
-97
-91
-93
-91
-79
-85
-87
-81
-87
-91
-81
-81
-75
-79
-87
-77
-79
-84
-73
-80
-85
-69
-71
-73
-59
-63
-73
-69
-73
-71
-65
-71
-67
-61
-67
-57
-59
-61
-59
-63
-63
-59
-57
-48
-57
-59
-57
-53
-51
-57
-57
-51
-45
-47
-47
-45
-43
-45
-45
-45
-43
-47
-35
-41
-35
-41
-43
-35
-37
-43
-39
-33
-31
-27
-27
-31
-29
-27
-31
-23
-25
-21
-31
-23
-25
-25
-23
-21
-15
-15
-9
-10
5
15
23
33
41
59
65
81
105
121
137
127
109
99
75
65
51
37
21
13
-3
-3
-9
-13
-17
-25
-31
-39
-25
-25
-29
-29
-27
-23
-13
-21
-18
-15
-13
-11
-15
-11
27
43
65
91
149
263
417
561
504
304
108
-47
-165
-230
-211
-135
-67
-29
-17
-9
-17
-25
-21
-21
-15
-23
-29
-15
-7
-13
-3
-11
-11
-3
-5
-9
-3
-5
-11
-5
-5
-3
3
-7
-11
-1
-1
3
13
9
11
19
15
21
35
39
35
45
51
53
71
73
81
93
101
113
129
137
147
171
181
195
211
229
227
249
265
269
292
297
297
309
304
297
309
299
291
289
265
245
233
213
185
177
155
133
133
121
103
101
75
67
67
57
53
57
53
41
49
41
37
43
37
33
43
37
29
35
27
29
41
37
29
29
33
27
41
41
37
35
35
39
41
37
39
49
41
49
53
45
49
37
39
45
45
39
49
51
37
41
43
39
49
49
43
45
33
37
49
43
39
51
51
45
49
41
41
47
45
39
45
41
41
41
41
45
53
45
41
41
43
37
45
37
29
43
37
41
45
35
33
33
29
33
39
33
27
33
33
27
43
37
29
37
37
25
43
39
33
37
41
31
37
37
25
35
33
39
39
39
33
35
39
37
45
45
31
43
45
53
65
65
65
87
79
81
91
117
137
172
185
171
173
159
141
119
101
83
77
53
29
29
15
7
7
3
-3
1
-5
-7
1
-5
-15
-5
-9
-9
-1
-3
-1
1
-3
-9
9
39
65
93
111
173
289
449
585
540
331
115
-35
-146
-213
-172
-109
-53
-15
-7
-9
-7
-3
-13
-7
-9
-5
-9
-7
-9
-1
-3
-3
5
-3
-9
-4
1
-7
-3
-7
-7
-3
-9
-3
-1
-5
-7
-1
-1
-3
-1
1
5
21
17
21
31
23
27
43
49
57
71
71
79
97
113
125
139
141
155
175
189
203
217
231
237
255
257
267
277
283
277
284
275
259
253
241
221
201
185
165
153
129
107
97
83
69
61
43
25
35
25
19
13
3
5
-1
-3
-1
-1
-11
-5
-15
-21
-13
-25
-21
-19
-29
-29
-23
-23
-29
-15
-39
-33
-33
-39
-29
-31
-39
-39
-31
-29
-43
-34
-33
-41
-35
-43
-41
-35
-47
-47
-41
-41
-41
-47
-53
-57
-49
-55
-55
-57
-57
-47
-39
-51
-61
-61
-69
-71
-59
-65
-68
-61
-67
-69
-65
-67
-69
-67
-75
-73
-59
-65
-73
-79
-67
-69
-69
-75
-77
-75
-83
-87
-71
-77
-91
-75
-75
-79
-71
-77
-81
-79
-91
-91
-79
-89
-93
-85
-89
-83
-75
-85
-92
-79
-87
-93
-91
-95
-103
-103
-99
-101
-85
-95
-93
-87
-99
-105
-93
-93
-95
-89
-97
-87
-73
-73
-75
-61
-63
-59
-35
-13
-1
35
33
17
17
1
-31
-37
-63
-79
-91
-105
-121
-129
-141
-145
-135
-129
-137
-129
-141
-147
-145
-141
-150
-134
-133
-143
-127
-133
-129
-125
-131
-133
-103
-67
-47
-9
33
119
267
339
227
31
-160
-283
-351
-376
-339
-256
-194
-171
-149
-145
-155
-147
-153
-155
-157
-153
-153
-149
-151
-155
-149
-159
-161
-149
-149
-153
-153
-159
-159
-147
-149
-149
-139
-131
-138
-127
-129
-133
-122
-117
-115
-121
-129
-115
-105
-105
-95
-85
-89
-85
-69
-65
-61
-39
-37
-27
-13
-9
7
29
41
45
55
63
81
99
109
109
129
139
137
147
147
149
155
137
125
117
95
69
61
33
23
17
1
-25
-37
-57
-71
-63
-85
-89
-95
-105
-111
-99
-107
-117
-115
-121
-125
-113
-115
-125
-115
-121
-123
-115
-121
-123
-123
-125
-127
-115
-123
-125
-121
-125
-123
-121
-125
-123
-113
-121
-125
-115
-116
-129
-121
-129
-133
-115
-123
-127
-119
-117
-119
-115
-115
-117
-119
-121
-129
-111
-115
-121
-121
-127
-121
-106
-118
-121
-111
-125
-117
-115
-117
-119
-107
-113
-115
-114
-109
-115
-109
-109
-117
-105
-109
-111
-105
-115
-117
-105
-109
-101
-101
-109
-115
-103
-105
-115
-105
-111
-111
-97
-101
-105
-95
-109
-107
-95
-97
-93
-93
-99
-97
-89
-96
-93
-79
-89
-95
-89
-91
-95
-81
-87
-89
-79
-81
-77
-67
-67
-59
-43
-35
-27
-23
-13
5
41
57
69
65
51
35
27
3
-9
-23
-43
-63
-63
-69
-87
-85
-85
-91
-79
-85
-91
-80
-89
-89
-83
-85
-78
-77
-73
-80
-67
-67
-71
-43
-27
-3
27
63
129
265
421
497
379
169
-23
-151
-253
-278
-224
-151
-101
-61
-53
-65
-65
-67
-71
-69
-71
-81
-69
-57
-59
-57
-57
-57
-47
-55
-53
-43
-45
-55
-51
-53
-49
-47
-55
-49
-47
-45
-51
-37
-39
-37
-25
-27
-29
-13
-11
-11
-6
5
5
23
23
27
39
49
67
81
87
87
113
123
145
165
173
187
196
205
221
233
232
249
257
261
267
273
267
257
241
227
223
204
179
159
131
111
111
91
81
65
55
39
33
17
11
17
11
1
5
-1
-3
5
-5
-16
-3
-13
-25
-15
-11
-19
-7
-11
-19
-15
-15
-19
-7
-27
-17
-15
-19
-25
-9
-13
-19
-11
-9
-13
-9
-9
-15
-13
-19
-23
-9
-13
-21
-11
-15
-27
-9
-21
-17
-11
-15
-19
-15
-15
-15
-9
-25
-27
-15
-19
-23
-13
-23
-21
-15
-15
-17
-21
-19
-19
-7
-15
-15
-13
-13
-23
-15
-19
-17
-13
-19
-25
-19
-21
-23
-13
-23
-31
-23
-27
-27
-21
-29
-29
-25
-23
-35
-25
-31
-29
-23
-23
-27
-21
-31
-29
-23
-25
-33
-25
-33
-29
-23
-27
-30
-21
-33
-35
-23
-31
-37
-27
-25
-27
-21
-27
-25
-15
-23
-15
-1
3
5
21
29
37
49
69
71
101
117
117
119
108
87
77
57
35
27
5
-13
-11
-25
-37
-29
-25
-41
-31
-31
-37
-37
-39
-43
-31
-37
-39
-31
-31
-35
-25
-31
-31
-11
13
41
61
93
145
261
415
556
497
287
80
-71
-181
-244
-209
-137
-87
-35
-28
-31
-29
-29
-43
-29
-29
-37
-31
-39
-43
-39
-37
-31
-21
-31
-31
-27
-31
-37
-29
-29
-35
-27
-31
-29
-23
-25
-35
-11
-9
-11
-4
-5
-7
9
11
17
23
25
31
39
48
49
57
75
85
99
101
121
133
141
155
177
185
200
217
227
227
247
247
257
273
273
272
275
281
261
269
253
225
217
201
171
151
129
105
103
83
67
67
61
49
31
21
11
15
1
1
-3
-5
-7
-7
-13
-15
-7
-15
-29
-21
-11
-13
-15
-15
-29
-29
-27
-35
-29
-27
-35
-31
-39
-43
-35
-37
-39
-31
-35
-43
-35
-35
-41
-35
-37
-43
-39
-39
-41
-37
-35
-47
-41
-45
-53
-33
-43
-45
-41
-53
-57
-47
-47
-49
-51
-55
-53
-45
-55
-52
-51
-59
-63
-53
-57
-61
-57
-57
-69
-65
-67
-77
-65
-67
-70
-71
-71
-73
-69
-73
-75
-67
-67
-75
-67
-73
-81
-77
-77
-71
-65
-67
-83
-73
-69
-75
-73
-69
-76
-63
-74
-79
-69
-77
-71
-59
-63
-63
-69
-69
-73
-67
-71
-71
-59
-67
-73
-73
-69
-61
-49
-61
-55
-37
-41
-41
-27
-23
-7
13
31
57
75
69
63
55
21
-5
-15
-45
-67
-69
-69
-85
-79
-93
-101
-93
-105
-105
-96
-99
-107
-99
-105
-107
-97
-107
-107
-93
-93
-96
-87
-87
-83
-47
-33
-15
29
99
205
349
345
181
-15
-178
-277
-335
-335
-283
-187
-145
-121
-101
-101
-111
-107
-106
-111
-105
-111
-111
-103
-93
-103
-106
-111
-111
-97
-107
-111
-105
-101
-109
-93
-101
-95
-85
-93
-85
-79
-79
-85
-81
-83
-80
-67
-67
-63
-61
-51
-47
-37
-32
-37
-27
-21
-23
-5
7
9
29
49
47
71
80
93
115
129
135
147
155
167
191
193
187
204
200
195
189
177
165
159
145
117
101
81
51
49
29
9
-15
-27
-43
-39
-59
-55
-57
-75
-87
-89
-91
-99
-89
-97
-103
-93
-95
-111
-105
-105
-101
-101
-108
-113
-105
-110
-115
-99
-105
-111
-105
-109
-111
-99
-109
-116
-105
-111
-110
-105
-109
-115
-103
-115
-119
-105
-107
-113
-101
-111
-123
-121
-117
-123
-121
-122
-121
-121
-125
-131
-121
-121
-129
-117
-117
-119
-115
-125
-127
-117
-123
-125
-117
-123
-127
-121
-115
-126
-115
-125
-129
-119
-117
-115
-111
-113
-119
-107
-115
-117
-109
-105
-109
-99
-110
-111
-103
-107
-109
-105
-103
-107
-103
-101
-99
-101
-101
-105
-93
-99
-99
-91
-95
-95
-95
-95
-95
-83
-89
-99
-99
-95
-99
-91
-95
-97
-87
-79
-69
-51
-51
-45
-31
-29
-21
3
27
43
55
49
41
33
19
1
-3
-31
-51
-61
-69
-77
-67
-81
-89
-83
-91
-91
-79
-89
-90
-85
-91
-85
-71
-73
-75
-61
-65
-69
-53
-47
-23
11
25
49
105
211
364
472
379
195
-5
-147
-233
-283
-257
-173
-107
-73
-41
-53
-55
-41
-47
-51
-41
-45
-53
-41
-49
-45
-41
-39
-41
-33
-29
-35
-31
-31
-33
-27
-27
-35
-25
-25
-30
-15
-13
-25
-7
-13
-19
-9
-1
-5
1
3
5
21
31
31
45
49
53
67
71
83
113
111
123
145
157
177
193
199
209
229
241
247
265
269
279
295
293
293
291
283
273
265
256
227
217
185
159
149
125
115
103
89
83
77
49
45
49
29
25
33
23
19
19
11
5
13
15
7
11
9
-1
3
-1
-3
13
7
-1
7
1
7
9
5
5
11
9
-1
13
5
3
13
15
11
1
3
5
11
3
3
9
5
5
9
5
5
19
9
3
19
7
13
21
11
9
17
17
11
23
11
5
19
17
9
7
17
13
21
15
13
17
19
9
17
13
16
23
21
9
21
17
17
23
17
19
29
17
17
25
25
17
23
23
21
17
17
13
13
17
17
21
21
21
15
21
17
19
21
29
25
21
23
19
27
27
29
27
31
37
31
25
31
21
35
33
29
41
33
35
37
53
61
71
71
75
83
85
91
125
161
153
169
161
153
141
116
105
97
75
51
51
35
43
23
13
21
25
17
19
7
13
19
13
11
21
15
17
25
21
19
27
23
41
63
89
103
145
207
313
497
619
536
331
117
-48
-149
-201
-141
-67
-23
11
19
17
19
19
11
7
23
11
7
11
5
7
5
11
1
7
5
-5
7
9
5
5
5
-1
13
11
5
21
13
13
27
17
9
21
27
27
39
49
43
57
65
61
79
81
89
107
113
115
141
153
161
181
196
209
229
243
251
277
273
285
293
305
305
317
315
309
320
305
289
271
249
237
233
205
179
161
141
129
119
103
91
81
69
64
61
51
35
29
23
21
21
11
13
11
9
9
9
-1
1
-3
3
-5
-1
-5
-1
-2
1
-3
-1
-3
-5
-5
-15
-15
-3
-7
-1
1
-7
1
-3
-7
-4
-9
-9
-7
-5
-3
-1
-3
-5
1
-9
-7
-5
-7
-11
-15
-15
-7
-5
-5
-13
-13
-19
-15
-7
-9
-15
-13
-13
-11
-11
-13
-17
-15
-16
-11
-9
-9
-11
-11
-13
-7
-13
-11
-15
-15
-11
-13
-15
-21
-19
-23
-23
-21
-15
-15
-20
-27
-29
-19
-13
-19
-15
-21
-15
-21
-28
-25
-29
-27
-31
-25
-31
-43
-31
-31
-31
-35
-29
-29
-19
-29
-27
-31
-37
-31
-31
-35
-27
-31
-29
-21
-27
-31
-23
-25
-23
-19
-9
-11
-1
-1
11
33
39
45
77
93
97
103
85
65
55
35
17
3
-11
-31
-37
-49
-63
-59
-63
-71
-65
-79
-75
-75
-77
-83
-87
-91
-87
-79
-73
-85
-83
-83
-81
-71
-61
-31
11
23
46
113
209
349
425
297
65
-118
-252
-347
-355
-303
-224
-149
-113
-101
-93
-105
-107
-103
-109
-109
-101
-95
-93
-83
-97
-106
-101
-105
-103
-97
-99
-101
-105
-105
-103
-91
-107
-97
-99
-99
-111
-93
-99
-103
-91
-93
-90
-79
-73
-79
-61
-67
-61
-41
-43
-41
-31
-27
-29
-5
3
17
37
43
51
73
81
95
115
135
143
161
171
169
185
201
193
203
191
189
181
161
139
129
105
89
75
49
17
-9
-19
-33
-31
-48
-67
-63
-73
-79
-81
-95
-108
-105
-107
-117
-109
-113
-127
-111
-115
-123
-117
-121
-125
-117
-127
-137
-117
-123
-117
-107
-113
-125
-117
-129
-127
-115
-109
-115
-114
-117
-123
-117
-127
-123
-109
-117
-129
-115
-121
-115
-109
-121
-123
-117
-117
-125
-119
-127
-131
-127
-123
-118
-115
-121
-129
-117
-121
-123
-111
-119
-129
-118
-121
-123
-105
-115
-129
-113
-123
-121
-115
-127
-129
-123
-133
-131
-121
-129
-129
-117
-129
-125
-117
-129
-137
-117
-125
-123
-121
-119
-123
-119
-123
-112
-117
-112
-111
-121
-117
-109
-112
-121
-121
-125
-125
-115
-115
-115
-109
-111
-118
-105
-112
-117
-111
-105
-99
-91
-99
-99
-89
-85
-79
-61
-63
-55
-29
-9
16
39
33
17
17
-1
-21
-27
-45
-73
-81
-97
-111
-105
-119
-129
-125
-125
-130
-123
-130
-137
-129
-129
-137
-121
-121
-129
-117
-123
-123
-113
-117
-109
-73
-64
-45
-3
65
181
353
417
279
63
-143
-268
-343
-371
-331
-235
-165
-131
-101
-107
-121
-111
-114
-121
-105
-107
-117
-111
-105
-109
-103
-107
-111
-101
-109
-109
-97
-105
-105
-95
-95
-101
-95
-79
-89
-77
-77
-83
-61
-63
-71
-59
-53
-53
-41
-43
-37
-31
-29
-19
-5
-1
-1
13
27
41
55
69
81
93
109
129
145
159
169
191
197
209
231
240
243
250
247
249
253
245
229
225
209
201
179
153
131
115
101
83
69
45
37
35
23
13
17
7
-1
3
-1
-7
2
-5
-15
-11
-11
-15
-5
-11
-7
-1
-11
-13
-1
5
-11
-1
-9
-5
-1
-1
-5
-1
-3
5
7
3
-1
17
7
-1
9
9
5
13
9
11
27
19
19
17
13
9
19
19
17
21
11
1
17
13
11
19
13
17
23
23
16
27
33
23
25
27
23
29
25
17
25
23
31
37
37
33
41
37
43
33
33
39
33
29
35
39
29
41
37
37
45
39
31
41
35
27
37
39
33
41
49
45
51
41
33
53
55
49
57
53
51
53
51
45
51
51
41
49
43
45
61
51
53
53
53
51
55
53
49
53
57
73
89
91
95
117
107
109
143
169
185
201
201
193
183
157
141
129
115
93
87
69
49
43
37
27
41
27
21
33
29
17
29
27
19
29
29
35
43
43
39
49
53
65
97
117
131
181
267
397
597
703
579
360
137
-39
-145
-185
-129
-51
11
37
61
55
43
41
35
27
39
39
29
33
23
25
37
31
23
23
32
29
39
31
29
43
35
29
37
33
31
37
41
35
47
43
43
51
51
53
67
67
67
87
77
83
105
109
119
135
137
145
163
179
189
211
223
233
259
277
285
307
305
317
337
339
338
351
344
355
357
341
331
319
305
277
265
245
225
213
193
163
161
148
129
125
105
101
89
73
67
77
69
61
65
57
53
63
51
43
49
47
43
53
43
29
45
39
37
43
39
29
45
39
31
43
39
33
41
33
27
43
39
35
37
43
37
39
43
29
37
37
37
41
33
31
39
41
37
48
39
43
39
41
45
39
37
41
35
33
39
37
29
37
37
29
41
43
39
39
37
31
43
45
29
31
29
29
39
33
23
31
31
27
29
25
21
27
25
21
29
23
19
29
25
15
23
25
29
29
25
17
27
23
11
17
27
13
23
17
17
25
11
5
21
16
5
9
7
11
25
21
13
17
19
11
25
27
23
33
29
23
49
49
50
61
61
65
87
99
113
145
161
155
153
137
117
112
87
65
55
43
27
17
9
-7
-1
-7
-11
-1
-3
-11
-5
-7
-15
-11
-11
-19
-11
-15
-11
-1
-9
-9
1
33
55
81
115
173
293
466
591
509
293
79
-71
-179
-243
-197
-127
-71
-31
-19
-15
-19
-33
-39
-27
-37
-37
-23
-35
-39
-15
-21
-31
-23
-21
-29
-29
-29
-25
-23
-23
-29
-21
-31
-29
-25
-27
-25
-21
-27
-31
-15
-17
-19
-9
-5
-5
5
15
5
27
23
31
45
51
57
77
83
89
117
123
133
149
160
175
201
209
223
243
251
251
269
269
261
273
265
260
255
237
211
195
175
145
127
105
83
75
53
33
25
17
-1
-5
-15
-27
-29
-39
-37
-32
-39
-41
-37
-47
-43
-41
-53
-57
-53
-61
-73
-63
-71
-75
-67
-65
-63
-73
-75
-67
-69
-67
-57
-69
-67
-57
-63
-63
-63
-73
-80
-69
-65
-77
-67
-77
-79
-67
-69
-71
-69
-81
-77
-67
-71
-81
-73
-77
-83
-85
-87
-81
-75
-80
-91
-83
-79
-79
-83
-95
-95
-85
-89
-91
-85
-91
-98
-96
-95
-97
-81
-85
-93
-89
-93
-91
-81
-93
-103
-97
-99
-97
-83
-95
-90
-89
-99
-99
-95
-99
-99
-91
-103
-99
-91
-101
-103
-89
-101
-109
-97
-99
-103
-99
-99
-107
-89
-101
-107
-101
-105
-87
-85
-86
-95
-87
-89
-95
-79
-79
-81
-70
-63
-67
-41
-37
-35
-1
21
45
57
51
25
13
-12
-31
-39
-59
-85
-89
-109
-119
-125
-121
-123
-115
-134
-131
-117
-119
-131
-129
-135
-138
-125
-119
-123
-121
-123
-130
-114
-105
-101
-69
-63
-49
5
97
245
369
305
119
-63
-211
-308
-361
-358
-295
-213
-161
-137
-125
-127
-133
-115
-129
-133
-137
-143
-131
-123
-141
-139
-129
-129
-133
-131
-131
-139
-129
-127
-137
-119
-127
-137
-137
-143
-139
-129
-129
-131
-107
-105
-119
-105
-107
-107
-87
-87
-91
-73
-73
-61
-57
-55
-43
-29
-13
-11
9
17
17
43
55
67
91
99
109
135
145
141
165
165
177
185
185
165
165
149
137
121
103
83
69
53
31
5
-17
-29
-31
-49
-61
-67
-76
-85
-87
-101
-107
-101
-109
-109
-99
-111
-114
-109
-111
-113
-99
-109
-119
-109
-113
-115
-105
-113
-117
-97
-99
-107
-99
-99
-101
-95
-97
-96
-91
-95
-99
-83
-93
-85
-79
-93
-99
-96
-93
-91
-82
-87
-97
-93
-95
-87
-77
-79
-95
-85
-85
-91
-85
-87
-89
-77
-81
-87
-77
-77
-87
-86
-75
-77
-71
-71
-81
-73
-79
-79
-67
-65
-65
-71
-71
-73
-57
-57
-57
-47
-55
-57
-47
-45
-55
-47
-48
-53
-45
-43
-55
-43
-51
-37
-27
-37
-39
-33
-33
-35
-25
-31
-25
-31
-37
-37
-15
-23
-33
-23
-27
-29
-13
-21
-25
-13
-21
-23
-7
-1
-7
13
23
33
51
41
57
73
91
109
137
145
137
133
113
89
83
61
41
33
13
-1
-1
-5
-9
-9
-15
-19
-9
-13
-9
-7
-9
-13
-1
3
-7
5
5
1
17
21
29
59
77
99
149
235
373
549
612
461
261
65
-89
-175
-211
-153
-67
-11
11
19
13
5
11
11
27
23
19
19
31
23
17
23
21
13
23
27
27
33
29
25
33
33
29
41
31
31
41
39
43
55
41
41
51
51
55
73
65
65
83
93
91
109
105
109
137
151
155
179
185
189
219
229
245
257
265
273
293
303
313
331
341
343
357
345
345
349
336
327
315
285
275
256
225
215
197
179
165
152
131
127
117
113
117
103
101
105
93
89
93
89
81
71
71
69
69
73
69
73
79
65
81
69
61
69
65
65
69
69
65
65
63
57
59
55
53
57
59
57
69
59
57
69
65
61
71
65
53
65
63
57
63
65
53
61
49
53
59
57
55
55
55
53
69
59
61
53
63
61
75
61
61
63
59
59
71
69
59
69
51
49
59
65
61
73
65
59
65
63
57
71
65
53
69
65
63
69
65
59
73
69
57
61
65
57
61
57
51
61
53
53
61
59
53
59
59
57
57
49
45
59
59
49
63
49
51
61
53
49
59
57
55
63
63
63
85
87
85
101
103
105
125
141
155
185
188
183
181
169
149
133
111
87
73
61
49
51
41
31
33
27
23
39
25
21
29
23
21
29
25
23
35
33
34
45
43
31
61
93
111
133
181
279
424
596
637
465
235
33
-105
-177
-167
-89
-31
17
43
35
29
35
33
19
21
27
23
37
27
21
29
23
21
27
21
15
17
27
21
27
23
22
23
21
21
31
21
25
27
33
37
51
45
33
53
49
59
71
73
81
89
91
101
117
125
135
149
157
177
185
203
221
237
253
267
279
289
299
301
317
317
329
343
331
325
323
304
293
281
253
237
223
197
175
161
129
112
109
97
73
81
63
53
49
37
31
31
23
23
27
9
5
17
13
3
5
3
-1
5
-3
-3
-3
-9
-11
3
-3
-11
-9
-19
-13
-1
-9
-15
-9
-13
-25
-11
-19
-21
-11
-25
-15
-11
-15
-15
-19
-25
-27
-11
-21
-29
-27
-27
-29
-25
-23
-29
-23
-19
-31
-23
-27
-27
-25
-29
-33
-29
-35
-43
-27
-39
-41
-21
-29
-35
-31
-35
-43
-30
-41
-47
-45
-53
-43
-37
-47
-55
-47
-47
-45
-37
-43
-55
-47
-53
-53
-45
-53
-61
-51
-61
-61
-57
-57
-59
-53
-59
-67
-59
-61
-71
-59
-49
-55
-57
-55
-63
-57
-67
-63
-61
-65
-65
-55
-59
-47
-31
-25
-25
-15
-15
-7
19
39
65
89
77
59
53
27
9
-1
-21
-47
-59
-69
-89
-79
-91
-93
-85
-95
-105
-107
-113
-111
-105
-109
-109
-95
-109
-111
-95
-93
-109
-85
-85
-71
-35
-23
-9
61
159
305
410
309
107
-91
-231
-319
-355
-331
-251
-181
-138
-125
-118
-121
-113
-123
-121
-121
-129
-127
-125
-117
-121
-117
-123
-123
-119
-123
-127
-123
-123
-125
-119
-123
-121
-121
-119
-101
-105
-102
-103
-96
-95
-105
-95
-87
-81
-83
-77
-69
-69
-73
-59
-41
-35
-25
-15
-5
-1
5
23
33
61
73
83
91
109
117
133
149
157
169
177
189
189
185
185
180
165
151
155
141
109
81
65
45
27
-13
-23
-27
-35
-49
-57
-65
-79
-95
-95
-95
-96
-99
-109
-117
-115
-121
-131
-123
-129
-123
-117
-119
-127
-114
-117
-119
-124
-123
-113
-117
-123
-117
-111
-111
-103
-111
-109
-121
-121
-121
-119
-123
-113
-111
-112
-105
-111
-121
-115
-115
-112
-105
-111
-115
-107
-114
-121
-113
-112
-119
-119
-123
-119
-111
-109
-117
-107
-111
-115
-117
-121
-121
-115
-121
-119
-111
-113
-125
-115
-117
-123
-115
-117
-111
-107
-117
-123
-121
-107
-110
-107
-105
-111
-105
-105
-113
-95
-103
-101
-93
-103
-95
-99
-97
-105
-87
-91
-89
-89
-89
-99
-83
-89
-81
-77
-85
-87
-79
-79
-89
-73
-75
-83
-69
-63
-53
-39
-29
-25
-15
-9
1
31
51
67
83
83
63
57
31
11
7
-15
-35
-41
-43
-61
-59
-59
-75
-63
-69
-75
-71
-67
-67
-53
-61
-67
-59
-63
-61
-47
-49
-51
-47
-33
1
39
53
87
173
307
469
535
385
157
-39
-181
-267
-283
-234
-163
-83
-43
-35
-29
-37
-48
-43
-47
-43
-39
-23
-39
-31
-27
-25
-16
-25
-19
-15
-19
-15
-9
-19
-15
-19
-21
-15
-9
-15
-3
-5
-1
3
1
3
9
7
7
31
29
33
41
45
43
63
69
77
89
101
117
135
145
151
173
181
199
223
238
245
261
269
276
293
297
309
319
308
305
301
289
269
269
249
229
213
189
167
151
131
119
113
105
91
84
65
59
63
55
33
45
29
35
29
31
21
35
25
13
27
27
25
29
27
19
29
23
23
27
25
25
35
25
23
33
23
21
35
29
29
33
27
27
39
27
33
41
33
25
37
31
37
37
35
25
35
37
37
39
27
33
35
27
27
39
25
27
31
27
31
23
17
19
21
23
17
13
21
13
21
17
13
25
21
19
25
21
25
29
21
17
29
23
25
33
31
29
21
17
19
33
35
27
27
17
23
37
33
29
33
31
21
35
37
27
33
29
23
41
39
29
23
23
23
35
31
21
31
29
31
39
35
37
41
43
47
67
75
77
87
85
103
123
140
155
169
169
157
149
129
107
97
77
55
45
39
27
19
9
-1
9
1
-3
1
-7
-15
-3
-3
-5
-1
-9
-3
5
5
9
17
23
35
73
91
119
171
273
433
629
669
495
253
37
-113
-210
-207
-123
-63
-5
25
25
19
23
9
3
11
5
5
17
5
-3
1
5
3
11
9
-7
11
7
1
9
-1
-1
7
5
9
17
3
9
9
1
3
17
15
17
23
35
33
49
39
45
61
61
73
95
97
105
125
137
145
159
169
181
207
221
232
251
259
257
281
291
297
313
309
301
305
291
281
273
255
229
219
197
181
173
145
121
117
93
83
93
69
53
49
39
29
29
23
13
17
7
7
19
7
-1
-1
-5
-11
-7
-7
-7
7
-15
-23
-11
-19
-27
-11
-21
-25
-19
-19
-27
-31
-37
-37
-30
-41
-49
-41
-43
-47
-39
-43
-39
-33
-43
-45
-35
-41
-49
-45
-51
-51
-41
-39
-41
-47
-53
-53
-41
-47
-51
-51
-63
-60
-39
-47
-49
-51
-55
-71
-53
-63
-63
-53
-59
-61
-53
-61
-67
-55
-61
-55
-53
-57
-63
-61
-73
-71
-59
-63
-69
-55
-59
-65
-63
-67
-75
-71
-79
-77
-67
-77
-69
-53
-77
-81
-73
-73
-71
-59
-77
-79
-79
-75
-85
-71
-77
-83
-71
-67
-75
-75
-77
-83
-65
-69
-67
-61
-49
-49
-29
-31
-29
-13
3
19
45
65
53
63
49
19
-7
-27
-47
-57
-80
-95
-99
-107
-115
-95
-98
-113
-111
-121
-119
-111
-111
-113
-111
-125
-117
-111
-121
-115
-91
-103
-111
-89
-63
-39
-15
11
81
203
347
398
261
35
-159
-265
-343
-371
-313
-228
-167
-131
-134
-127
-109
-121
-129
-125
-125
-129
-125
-127
-125
-117
-125
-125
-109
-117
-129
-118
-126
-131
-129
-127
-121
-117
-109
-125
-117
-121
-121
-109
-117
-115
-103
-95
-93
-85
-85
-91
-95
-90
-85
-65
-57
-49
-35
-31
-29
-11
-3
9
29
39
59
81
87
99
105
125
139
155
165
165
171
177
185
189
177
167
157
129
117
105
77
51
39
19
-5
-11
-27
-49
-51
-65
-71
-79
-95
-107
-105
-111
-111
-105
-115
-123
-119
-130
-133
-121
-127
-127
-123
-137
-140
-133
-141
-141
-133
-139
-133
-125
-131
-135
-129
-123
-129
-121
-121
-123
-117
-129
-131
-123
-123
-133
-125
-129
-127
-109
-127
-123
-121
-121
-127
-115
-129
-125
-121
-119
-129
-133
-135
-129
-121
-125
-121
-119
-127
-125
-119
-123
-121
-111
-117
-124
-119
-117
-123
-111
-111
-121
-115
-121
-118
-111
-105
-115
-103
-121
-118
-110
-105
-111
-111
-121
-127
-117
-114
-109
-103
-107
-103
-93
-103
-105
-99
-105
-101
-95
-103
-99
-83
-97
-105
-101
-95
-97
-87
-93
-95
-81
-79
-83
-61
-57
-59
-41
-33
